0.511,0.132,-0.092,0.115,-0.085,0.112,-0.1,-0.012,0.511,0.511,0.511,0.511
0.512,0.132,-0.089,0.115,-0.085,0.112,-0.1,-0.012,0.512,0.512,0.512,0.512
0.516,0.132,-0.089,0.115,-0.085,0.112,-0.1,-0.012,0.516,0.516,0.516,0.516
0.519,0.132,-0.089,0.115,-0.085,0.112,-0.097,-0.012,0.519,0.519,0.519,0.519
0.52,0.132,-0.089,0.115,-0.085,0.112,-0.097,-0.012,0.52,0.52,0.52,0.52
0.523,0.132,-0.089,0.115,-0.085,0.112,-0.1,-0.012,0.523,0.523,0.523,0.523
0.52,0.132,-0.092,0.115,-0.085,0.112,-0.1,-0.012,0.52,0.52,0.52,0.52
0.524,0.132,-0.092,0.115,-0.085,0.112,-0.1,-0.013,0.524,0.524,0.524,0.524
0.527,0.132,-0.092,0.115,-0.085,0.112,-0.1,-0.012,0.527,0.527,0.527,0.527
0.528,0.135,-0.092,0.115,-0.085,0.112,-0.1,-0.012,0.528,0.528,0.528,0.528
0.528,0.135,-0.089,0.115,-0.085,0.112,-0.1,-0.012,0.528,0.528,0.528,0.528
0.528,0.135,-0.089,0.115,-0.085,0.112,-0.097,-0.012,0.528,0.528,0.528,0.528
0.532,0.135,-0.089,0.115,-0.085,0.112,-0.097,-0.012,0.532,0.532,0.532,0.532
0.535,0.135,-0.089,0.115,-0.085,0.112,-0.1,-0.012,0.535,0.535,0.535,0.535
0.532,0.135,-0.092,0.115,-0.085,0.112,-0.1,-0.013,0.532,0.532,0.532,0.532
0.532,0.132,-0.092,0.115,-0.085,0.112,-0.1,-0.012,0.532,0.532,0.532,0.532
0.536,0.135,-0.092,0.115,-0.085,0.112,-0.1,-0.012,0.536,0.536,0.536,0.536
0.535,0.135,-0.092,0.115,-0.085,0.112,-0.1,-0.013,0.535,0.535,0.535,0.535
0.535,0.135,-0.092,0.115,-0.085,0.112,-0.1,-0.012,0.535,0.535,0.535,0.535
0.535,0.135,-0.089,0.115,-0.085,0.112,-0.1,-0.012,0.535,0.535,0.535,0.535
0.535,0.135,-0.089,0.115,-0.085,0.112,-0.097,-0.012,0.535,0.535,0.535,0.535
0.536,0.135,-0.089,0.115,-0.085,0.112,-0.1,-0.012,0.536,0.536,0.536,0.536
0.536,0.135,-0.089,0.115,-0.085,0.112,-0.1,-0.012,0.536,0.536,0.536,0.536
0.535,0.135,-0.092,0.115,-0.085,0.112,-0.1,-0.012,0.535,0.535,0.535,0.535
0.535,0.135,-0.092,0.115,-0.085,0.112,-0.1,-0.013,0.535,0.535,0.535,0.535
0.535,0.135,-0.092,0.115,-0.085,0.112,-0.1,-0.012,0.535,0.535,0.535,0.535
0.532,0.135,-0.092,0.115,-0.085,0.112,-0.1,-0.012,0.532,0.532,0.532,0.532
0.532,0.135,-0.089,0.115,-0.085,0.112,-0.1,-0.012,0.532,0.532,0.532,0.532
0.532,0.135,-0.089,0.115,-0.085,0.112,-0.1,-0.012,0.532,0.532,0.532,0.532
0.532,0.135,-0.089,0.115,-0.085,0.112,-0.097,-0.012,0.532,0.532,0.532,0.532
0.531,0.135,-0.089,0.115,-0.085,0.112,-0.1,-0.012,0.531,0.531,0.531,0.531
0.528,0.135,-0.089,0.115,-0.085,0.112,-0.1,-0.012,0.528,0.528,0.528,0.528
0.527,0.132,-0.092,0.115,-0.085,0.112,-0.1,-0.012,0.527,0.527,0.527,0.527
0.527,0.132,-0.092,0.115,-0.085,0.112,-0.1,-0.012,0.527,0.527,0.527,0.527
0.527,0.132,-0.092,0.115,-0.085,0.112,-0.1,-0.012,0.527,0.527,0.527,0.527
0.523,0.132,-0.089,0.115,-0.085,0.112,-0.1,-0.012,0.523,0.523,0.523,0.523
0.523,0.132,-0.089,0.115,-0.085,0.112,-0.1,-0.012,0.523,0.523,0.523,0.523
0.52,0.132,-0.089,0.115,-0.085,0.112,-0.097,-0.012,0.52,0.52,0.52,0.52
0.519,0.132,-0.089,0.115,-0.085,0.112,-0.1,-0.012,0.519,0.519,0.519,0.519
0.516,0.132,-0.092,0.115,-0.085,0.112,-0.1,-0.013,0.516,0.516,0.516,0.516
0.512,0.132,-0.092,0.115,-0.085,0.112,-0.1,-0.013,0.512,0.512,0.512,0.512
0.512,0.132,-0.092,0.115,-0.085,0.112,-0.1,-0.013,0.512,0.512,0.512,0.512
0.511,0.132,-0.092,0.115,-0.085,0.112,-0.1,-0.012,0.511,0.511,0.511,0.511
0.508,0.132,-0.089,0.115,-0.085,0.112,-0.1,-0.012,0.508,0.508,0.508,0.508
0.504,0.132,-0.089,0.115,-0.085,0.112,-0.1,-0.012,0.504,0.504,0.504,0.504
0.5,0.132,-0.089,0.115,-0.085,0.112,-0.097,-0.012,0.5,0.5,0.5,0.5
0.499,0.132,-0.089,0.115,-0.085,0.112,-0.1,-0.012,0.499,0.499,0.499,0.499
0.499,0.132,-0.089,0.115,-0.085,0.112,-0.1,-0.012,0.499,0.499,0.499,0.499
0.495,0.131,-0.092,0.115,-0.085,0.112,-0.1,-0.013,0.495,0.495,0.495,0.495
0.488,0.131,-0.092,0.115,-0.085,0.112,-0.1,-0.012,0.488,0.488,0.488,0.488
0.487,0.131,-0.092,0.115,-0.085,0.112,-0.1,-0.012,0.487,0.487,0.487,0.487
0.484,0.131,-0.089,0.115,-0.085,0.112,-0.1,-0.012,0.484,0.484,0.484,0.484
0.48,0.131,-0.089,0.115,-0.085,0.112,-0.1,-0.012,0.48,0.48,0.48,0.48
0.476,0.132,-0.089,0.115,-0.085,0.112,-0.1,-0.012,0.476,0.476,0.476,0.476
0.472,0.131,-0.089,0.115,-0.085,0.112,-0.1,-0.012,0.472,0.472,0.472,0.472
0.471,0.131,-0.089,0.115,-0.085,0.112,-0.1,-0.012,0.471,0.471,0.471,0.471
0.467,0.131,-0.092,0.115,-0.085,0.112,-0.1,-0.012,0.467,0.467,0.467,0.467
0.464,0.131,-0.092,0.115,-0.085,0.112,-0.1,-0.013,0.464,0.464,0.464,0.464
0.459,0.132,-0.092,0.115,-0.085,0.112,-0.1,-0.012,0.459,0.459,0.459,0.459
0.455,0.132,-0.092,0.115,-0.085,0.112,-0.1,-0.012,0.455,0.455,0.455,0.455
0.451,0.132,-0.089,0.115,-0.085,0.112,-0.1,-0.012,0.451,0.451,0.451,0.451
0.447,0.132,-0.089,0.115,-0.085,0.112,-0.1,-0.012,0.447,0.447,0.447,0.447
0.443,0.132,-0.089,0.115,-0.085,0.112,-0.097,-0.012,0.443,0.443,0.443,0.443
0.436,0.132,-0.089,0.115,-0.085,0.112,-0.1,-0.012,0.436,0.436,0.436,0.436
0.432,0.132,-0.092,0.115,-0.085,0.112,-0.1,-0.012,0.432,0.432,0.432,0.432
0.427,0.132,-0.092,0.115,-0.085,0.112,-0.1,-0.012,0.427,0.427,0.427,0.427
0.423,0.131,-0.092,0.115,-0.085,0.112,-0.1,-0.012,0.423,0.423,0.423,0.423
0.42,0.132,-0.092,0.115,-0.085,0.112,-0.1,-0.012,0.42,0.42,0.42,0.42
0.412,0.131,-0.089,0.115,-0.085,0.112,-0.1,-0.012,0.412,0.412,0.412,0.412
0.407,0.132,-0.089,0.115,-0.085,0.112,-0.1,-0.012,0.407,0.407,0.407,0.407
0.403,0.132,-0.089,0.115,-0.085,0.112,-0.097,-0.012,0.403,0.403,0.403,0.403
0.4,0.131,-0.089,0.115,-0.085,0.112,-0.1,-0.012,0.4,0.4,0.4,0.4
0.395,0.131,-0.089,0.115,-0.085,0.112,-0.1,-0.012,0.395,0.395,0.395,0.395
0.388,0.131,-0.092,0.115,-0.085,0.112,-0.1,-0.013,0.388,0.388,0.388,0.388
0.383,0.131,-0.092,0.115,-0.085,0.112,-0.1,-0.012,0.383,0.383,0.383,0.383
0.379,0.131,-0.092,0.115,-0.085,0.112,-0.1,-0.012,0.379,0.379,0.379,0.379
0.372,0.131,-0.089,0.115,-0.085,0.112,-0.1,-0.012,0.372,0.372,0.372,0.372
0.364,0.128,-0.089,0.115,-0.085,0.112,-0.1,-0.012,0.364,0.364,0.364,0.364
0.36,0.128,-0.089,0.115,-0.085,0.112,-0.1,-0.012,0.36,0.36,0.36,0.36
0.355,0.128,-0.089,0.115,-0.085,0.112,-0.1,-0.012,0.355,0.355,0.355,0.355
0.348,0.128,-0.089,0.115,-0.085,0.112,-0.1,-0.012,0.348,0.348,0.348,0.348
0.344,0.128,-0.092,0.115,-0.085,0.112,-0.1,-0.013,0.344,0.344,0.344,0.344
0.335,0.128,-0.092,0.115,-0.085,0.112,-0.1,-0.013,0.335,0.335,0.335,0.335
0.332,0.128,-0.092,0.115,-0.085,0.112,-0.1,-0.012,0.332,0.332,0.332,0.332
0.327,0.128,-0.092,0.115,-0.085,0.112,-0.1,-0.012,0.327,0.327,0.327,0.327
0.319,0.128,-0.089,0.115,-0.085,0.112,-0.1,-0.012,0.319,0.319,0.319,0.319
0.312,0.128,-0.089,0.115,-0.085,0.112,-0.1,-0.012,0.312,0.312,0.312,0.312
0.307,0.128,-0.089,0.115,-0.085,0.112,-0.1,-0.012,0.307,0.307,0.307,0.307
0.3,0.128,-0.089,0.115,-0.085,0.112,-0.1,-0.012,0.3,0.3,0.3,0.3
0.295,0.128,-0.092,0.115,-0.085,0.112,-0.1,-0.012,0.295,0.295,0.295,0.295
0.288,0.128,-0.092,0.115,-0.085,0.112,-0.1,-0.013,0.288,0.288,0.288,0.288
0.28,0.128,-0.092,0.115,-0.085,0.112,-0.1,-0.012,0.28,0.28,0.28,0.28
0.275,0.128,-0.089,0.115,-0.085,0.112,-0.1,-0.012,0.275,0.275,0.275,0.275
0.268,0.128,-0.089,0.115,-0.085,0.112,-0.1,-0.012,0.268,0.268,0.268,0.268
0.26,0.128,-0.089,0.115,-0.085,0.112,-0.1,-0.012,0.26,0.26,0.26,0.26
0.255,0.128,-0.089,0.115,-0.085,0.112,-0.097,-0.012,0.255,0.255,0.255,0.255
0.247,0.127,-0.089,0.115,-0.085,0.112,-0.1,-0.012,0.247,0.247,0.247,0.247
0.24,0.127,-0.089,0.115,-0.085,0.112,-0.1,-0.012,0.24,0.24,0.24,0.24
0.235,0.124,-0.092,0.115,-0.085,0.112,-0.1,-0.013,0.235,0.235,0.235,0.235
0.224,0.124,-0.092,0.115,-0.085,0.112,-0.1,-0.013,0.224,0.224,0.224,0.224
0.22,0.124,-0.092,0.115,-0.085,0.112,-0.1,-0.012,0.22,0.22,0.22,0.22
0.212,0.124,-0.092,0.115,-0.085,0.112,-0.1,-0.012,0.212,0.212,0.212,0.212
0.204,0.127,-0.089,0.115,-0.085,0.112,-0.1,-0.012,0.204,0.204,0.204,0.204
0.2,0.127,-0.089,0.115,-0.085,0.112,-0.1,-0.012,0.2,0.2,0.2,0.2
0.191,0.127,-0.089,0.115,-0.085,0.112,-0.1,-0.012,0.191,0.191,0.191,0.191
0.184,0.127,-0.089,0.115,-0.085,0.112,-0.1,-0.012,0.184,0.184,0.184,0.184
0.176,0.127,-0.092,0.115,-0.085,0.112,-0.1,-0.013,0.176,0.176,0.176,0.176
0.171,0.124,-0.092,0.115,-0.085,0.112,-0.1,-0.012,0.171,0.171,0.171,0.171
0.167,0.124,-0.092,0.115,-0.085,0.112,-0.1,-0.012,0.167,0.167,0.167,0.167
0.156,0.124,-0.089,0.115,-0.085,0.112,-0.1,-0.012,0.156,0.156,0.156,0.156
0.148,0.124,-0.089,0.115,-0.085,0.112,-0.1,-0.012,0.148,0.148,0.148,0.148
0.14,0.124,-0.089,0.115,-0.085,0.112,-0.1,-0.012,0.14,0.14,0.14,0.14
0.136,0.124,-0.089,0.115,-0.085,0.112,-0.1,-0.012,0.136,0.136,0.136,0.136
0.127,0.124,-0.089,0.115,-0.085,0.112,-0.1,-0.012,0.127,0.127,0.127,0.127
0.12,0.123,-0.092,0.115,-0.085,0.112,-0.1,-0.013,0.12,0.12,0.12,0.12
0.111,0.123,-0.092,0.115,-0.085,0.112,-0.1,-0.013,0.111,0.111,0.111,0.111
0.104,0.123,-0.092,0.115,-0.085,0.112,-0.1,-0.012,0.104,0.104,0.104,0.104
0.096,0.123,-0.092,0.115,-0.085,0.112,-0.1,-0.012,0.096,0.096,0.096,0.096
0.091,0.123,-0.089,0.115,-0.085,0.112,-0.1,-0.012,0.091,0.091,0.091,0.091
0.083,0.123,-0.089,0.115,-0.085,0.112,-0.1,-0.012,0.083,0.083,0.083,0.083
0.075,0.124,-0.089,0.115,-0.085,0.112,-0.1,-0.012,0.075,0.075,0.075,0.075
0.067,0.123,-0.089,0.115,-0.085,0.112,-0.1,-0.012,0.067,0.067,0.067,0.067
0.06,0.123,-0.089,0.115,-0.085,0.112,-0.1,-0.012,0.06,0.06,0.06,0.06
0.051,0.123,-0.092,0.115,-0.085,0.112,-0.1,-0.013,0.051,0.051,0.051,0.051
0.044,0.123,-0.092,0.115,-0.085,0.112,-0.1,-0.012,0.044,0.044,0.044,0.044
0.036,0.123,-0.089,0.115,-0.085,0.112,-0.1,-0.012,0.036,0.036,0.036,0.036
0.031,0.123,-0.089,0.115,-0.085,0.112,-0.1,-0.012,0.031,0.031,0.031,0.031
0.023,0.123,-0.089,0.115,-0.085,0.112,-0.1,-0.012,0.023,0.023,0.023,0.023
0.015,0.123,-0.089,0.115,-0.085,0.112,-0.1,-0.012,0.015,0.015,0.015,0.015
0.008,0.12,-0.089,0.115,-0.085,0.112,-0.1,-0.012,0.008,0.008,0.008,0.008
-0.001,0.12,-0.089,0.115,-0.085,0.112,-0.1,-0.012,-0.001,-0.001,-0.001,-0.001
-0.008,0.12,-0.092,0.115,-0.085,0.112,-0.1,-0.012,-0.008,-0.008,-0.008,-0.008
-0.016,0.12,-0.092,0.115,-0.085,0.112,-0.1,-0.013,-0.016,-0.016,-0.016,-0.016
-0.024,0.119,-0.089,0.115,-0.085,0.112,-0.1,-0.012,-0.024,-0.024,-0.024,-0.024
-0.032,0.119,-0.092,0.115,-0.085,0.112,-0.1,-0.012,-0.032,-0.032,-0.032,-0.032
-0.037,0.119,-0.089,0.115,-0.085,0.112,-0.1,-0.012,-0.037,-0.037,-0.037,-0.037
-0.044,0.119,-0.089,0.115,-0.085,0.112,-0.1,-0.012,-0.044,-0.044,-0.044,-0.044
-0.053,0.12,-0.089,0.115,-0.085,0.112,-0.097,-0.012,-0.053,-0.053,-0.053,-0.053
-0.06,0.12,-0.089,0.115,-0.085,0.112,-0.1,-0.012,-0.06,-0.06,-0.06,-0.06
-0.065,0.119,-0.092,0.115,-0.085,0.112,-0.1,-0.013,-0.065,-0.065,-0.065,-0.065
-0.072,0.119,-0.092,0.115,-0.085,0.112,-0.1,-0.013,-0.072,-0.072,-0.072,-0.072
-0.081,0.119,-0.092,0.115,-0.085,0.112,-0.1,-0.012,-0.081,-0.081,-0.081,-0.081
-0.089,0.119,-0.092,0.115,-0.085,0.112,-0.1,-0.012,-0.089,-0.089,-0.089,-0.089
-0.096,0.119,-0.089,0.115,-0.085,0.112,-0.1,-0.012,-0.096,-0.096,-0.096,-0.096
-0.104,0.119,-0.089,0.115,-0.085,0.112,-0.1,-0.012,-0.104,-0.104,-0.104,-0.104
-0.112,0.119,-0.089,0.115,-0.085,0.112,-0.1,-0.012,-0.112,-0.112,-0.112,-0.112
-0.12,0.119,-0.089,0.115,-0.085,0.112,-0.1,-0.012,-0.12,-0.12,-0.12,-0.12
-0.124,0.116,-0.089,0.115,-0.085,0.112,-0.1,-0.012,-0.124,-0.124,-0.124,-0.124
-0.133,0.116,-0.092,0.115,-0.085,0.112,-0.1,-0.012,-0.133,-0.133,-0.133,-0.133
-0.137,0.116,-0.092,0.115,-0.085,0.112,-0.1,-0.013,-0.137,-0.137,-0.137,-0.137
-0.148,0.116,-0.092,0.115,-0.085,0.112,-0.1,-0.012,-0.148,-0.148,-0.148,-0.148
-0.149,0.116,-0.089,0.115,-0.085,0.112,-0.1,-0.012,-0.149,-0.149,-0.149,-0.149
-0.16,0.116,-0.089,0.115,-0.085,0.112,-0.1,-0.012,-0.16,-0.16,-0.16,-0.16
-0.165,0.116,-0.089,0.115,-0.085,0.112,-0.1,-0.012,-0.165,-0.165,-0.165,-0.165
-0.173,0.115,-0.089,0.115,-0.085,0.112,-0.1,-0.012,-0.173,-0.173,-0.173,-0.173
-0.18,0.116,-0.089,0.115,-0.085,0.112,-0.1,-0.012,-0.18,-0.18,-0.18,-0.18
-0.185,0.116,-0.092,0.115,-0.085,0.112,-0.1,-0.012,-0.185,-0.185,-0.185,-0.185
-0.192,0.115,-0.092,0.115,-0.085,0.112,-0.1,-0.012,-0.192,-0.192,-0.192,-0.192
-0.2,0.115,-0.089,0.115,-0.085,0.112,-0.1,-0.012,-0.2,-0.2,-0.2,-0.2
-0.205,0.115,-0.089,0.115,-0.085,0.112,-0.1,-0.012,-0.205,-0.205,-0.205,-0.205
-0.212,0.116,-0.089,0.115,-0.085,0.112,-0.1,-0.012,-0.212,-0.212,-0.212,-0.212
-0.22,0.115,-0.089,0.115,-0.085,0.112,-0.1,-0.012,-0.22,-0.22,-0.22,-0.22
-0.224,0.115,-0.089,0.115,-0.084,0.112,-0.1,-0.012,-0.224,-0.224,-0.224,-0.224
-0.232,0.115,-0.089,0.115,-0.085,0.112,-0.1,-0.012,-0.232,-0.232,-0.232,-0.232
-0.233,0.115,-0.092,0.115,-0.085,0.112,-0.1,-0.012,-0.233,-0.233,-0.233,-0.233
-0.244,0.112,-0.092,0.115,-0.085,0.112,-0.1,-0.013,-0.244,-0.244,-0.244,-0.244
-0.249,0.112,-0.092,0.115,-0.085,0.112,-0.1,-0.012,-0.249,-0.249,-0.249,-0.249
-0.256,0.112,-0.089,0.115,-0.085,0.112,-0.1,-0.012,-0.256,-0.256,-0.256,-0.256
-0.261,0.112,-0.089,0.115,-0.085,0.112,-0.1,-0.012,-0.261,-0.261,-0.261,-0.261
-0.265,0.112,-0.089,0.115,-0.085,0.112,-0.1,-0.012,-0.265,-0.265,-0.265,-0.265
-0.273,0.112,-0.089,0.115,-0.085,0.112,-0.1,-0.012,-0.273,-0.273,-0.273,-0.273
-0.277,0.112,-0.089,0.115,-0.085,0.112,-0.1,-0.012,-0.277,-0.277,-0.277,-0.277
-0.285,0.112,-0.089,0.115,-0.085,0.112,-0.1,-0.012,-0.285,-0.285,-0.285,-0.285
-0.289,0.111,-0.092,0.115,-0.085,0.112,-0.1,-0.013,-0.289,-0.289,-0.289,-0.289
-0.296,0.111,-0.092,0.115,-0.085,0.112,-0.1,-0.012,-0.296,-0.296,-0.296,-0.296
-0.304,0.111,-0.092,0.115,-0.085,0.112,-0.1,-0.012,-0.304,-0.304,-0.304,-0.304
-0.305,0.112,-0.089,0.115,-0.085,0.112,-0.1,-0.012,-0.305,-0.305,-0.305,-0.305
-0.309,0.112,-0.089,0.115,-0.085,0.112,-0.1,-0.012,-0.309,-0.309,-0.309,-0.309
-0.317,0.112,-0.089,0.115,-0.085,0.112,-0.1,-0.012,-0.317,-0.317,-0.317,-0.317
-0.324,0.112,-0.089,0.115,-0.085,0.112,-0.1,-0.012,-0.324,-0.324,-0.324,-0.324
-0.328,0.112,-0.089,0.115,-0.085,0.112,-0.1,-0.012,-0.328,-0.328,-0.328,-0.328
-0.332,0.111,-0.092,0.115,-0.085,0.112,-0.1,-0.013,-0.332,-0.332,-0.332,-0.332
-0.337,0.111,-0.092,0.115,-0.085,0.112,-0.1,-0.012,-0.337,-0.337,-0.337,-0.337
-0.344,0.111,-0.092,0.115,-0.085,0.112,-0.1,-0.012,-0.344,-0.344,-0.344,-0.344
-0.348,0.111,-0.089,0.115,-0.085,0.112,-0.1,-0.012,-0.348,-0.348,-0.348,-0.348
-0.353,0.111,-0.089,0.115,-0.085,0.112,-0.1,-0.012,-0.353,-0.353,-0.353,-0.353
-0.357,0.111,-0.089,0.115,-0.085,0.112,-0.1,-0.012,-0.357,-0.357,-0.357,-0.357
-0.36,0.111,-0.089,0.115,-0.085,0.112,-0.1,-0.012,-0.36,-0.36,-0.36,-0.36
-0.365,0.111,-0.089,0.115,-0.085,0.112,-0.1,-0.012,-0.365,-0.365,-0.365,-0.365
-0.368,0.111,-0.092,0.115,-0.085,0.112,-0.1,-0.013,-0.368,-0.368,-0.368,-0.368
-0.372,0.108,-0.092,0.115,-0.085,0.112,-0.1,-0.013,-0.372,-0.372,-0.372,-0.372
-0.376,0.108,-0.092,0.115,-0.085,0.112,-0.1,-0.012,-0.376,-0.376,-0.376,-0.376
-0.38,0.108,-0.092,0.115,-0.085,0.112,-0.1,-0.012,-0.38,-0.38,-0.38,-0.38
-0.384,0.111,-0.092,0.115,-0.085,0.112,-0.1,-0.012,-0.384,-0.384,-0.384,-0.384
-0.389,0.111,-0.089,0.115,-0.085,0.112,-0.1,-0.012,-0.389,-0.389,-0.389,-0.389
-0.393,0.111,-0.089,0.115,-0.085,0.112,-0.1,-0.012,-0.393,-0.393,-0.393,-0.393
-0.396,0.108,-0.089,0.115,-0.085,0.112,-0.1,-0.012,-0.396,-0.396,-0.396,-0.396
-0.401,0.108,-0.092,0.115,-0.085,0.112,-0.1,-0.012,-0.401,-0.401,-0.401,-0.401
-0.404,0.108,-0.092,0.115,-0.085,0.112,-0.1,-0.013,-0.404,-0.404,-0.404,-0.404
-0.408,0.108,-0.092,0.115,-0.085,0.112,-0.1,-0.013,-0.408,-0.408,-0.408,-0.408
-0.412,0.108,-0.092,0.115,-0.085,0.112,-0.1,-0.013,-0.412,-0.412,-0.412,-0.412
-0.413,0.108,-0.092,0.115,-0.085,0.112,-0.1,-0.012,-0.413,-0.413,-0.413,-0.413
-0.416,0.108,-0.092,0.115,-0.085,0.112,-0.1,-0.012,-0.416,-0.416,-0.416,-0.416
-0.417,0.108,-0.089,0.115,-0.085,0.112,-0.1,-0.012,-0.417,-0.417,-0.417,-0.417
-0.421,0.108,-0.089,0.115,-0.085,0.112,-0.1,-0.012,-0.421,-0.421,-0.421,-0.421
-0.424,0.108,-0.092,0.115,-0.085,0.112,-0.1,-0.012,-0.424,-0.424,-0.424,-0.424
-0.428,0.107,-0.092,0.115,-0.085,0.112,-0.1,-0.013,-0.428,-0.428,-0.428,-0.428
-0.429,0.107,-0.092,0.115,-0.085,0.112,-0.1,-0.013,-0.429,-0.429,-0.429,-0.429
-0.432,0.107,-0.092,0.115,-0.085,0.112,-0.1,-0.012,-0.432,-0.432,-0.432,-0.432
-0.433,0.108,-0.092,0.115,-0.085,0.112,-0.1,-0.012,-0.433,-0.433,-0.433,-0.433
-0.436,0.108,-0.089,0.115,-0.085,0.112,-0.1,-0.012,-0.436,-0.436,-0.436,-0.436
-0.44,0.108,-0.089,0.115,-0.085,0.112,-0.1,-0.012,-0.44,-0.44,-0.44,-0.44
-0.441,0.108,-0.089,0.115,-0.085,0.112,-0.1,-0.012,-0.441,-0.441,-0.441,-0.441
-0.441,0.108,-0.089,0.115,-0.085,0.112,-0.1,-0.012,-0.441,-0.441,-0.441,-0.441
-0.444,0.107,-0.092,0.115,-0.085,0.112,-0.1,-0.013,-0.444,-0.444,-0.444,-0.444
-0.445,0.107,-0.092,0.115,-0.085,0.112,-0.1,-0.013,-0.445,-0.445,-0.445,-0.445
-0.445,0.108,-0.092,0.115,-0.085,0.112,-0.1,-0.013,-0.445,-0.445,-0.445,-0.445
-0.448,0.108,-0.092,0.115,-0.085,0.112,-0.1,-0.012,-0.448,-0.448,-0.448,-0.448
-0.449,0.108,-0.092,0.115,-0.085,0.112,-0.1,-0.012,-0.449,-0.449,-0.449,-0.449
-0.449,0.108,-0.089,0.115,-0.085,0.112,-0.1,-0.012,-0.449,-0.449,-0.449,-0.449
-0.452,0.108,-0.089,0.115,-0.085,0.112,-0.1,-0.012,-0.452,-0.452,-0.452,-0.452
-0.452,0.108,-0.092,0.115,-0.085,0.112,-0.1,-0.012,-0.452,-0.452,-0.452,-0.452
-0.453,0.108,-0.092,0.115,-0.085,0.112,-0.1,-0.012,-0.453,-0.453,-0.453,-0.453
-0.453,0.107,-0.092,0.115,-0.085,0.112,-0.1,-0.013,-0.453,-0.453,-0.453,-0.453
-0.453,0.107,-0.092,0.115,-0.085,0.112,-0.1,-0.012,-0.453,-0.453,-0.453,-0.453
-0.456,0.107,-0.092,0.115,-0.085,0.112,-0.1,-0.012,-0.456,-0.456,-0.456,-0.456
-0.456,0.107,-0.092,0.115,-0.085,0.112,-0.1,-0.012,-0.456,-0.456,-0.456,-0.456
-0.456,0.108,-0.089,0.115,-0.085,0.112,-0.1,-0.012,-0.456,-0.456,-0.456,-0.456
-0.456,0.108,-0.089,0.115,-0.085,0.112,-0.1,-0.012,-0.456,-0.456,-0.456,-0.456
-0.456,0.108,-0.089,0.115,-0.085,0.112,-0.1,-0.012,-0.456,-0.456,-0.456,-0.456
-0.453,0.108,-0.089,0.115,-0.085,0.112,-0.1,-0.012,-0.453,-0.453,-0.453,-0.453
-0.453,0.107,-0.092,0.115,-0.085,0.112,-0.1,-0.013,-0.453,-0.453,-0.453,-0.453
-0.456,0.107,-0.092,0.115,-0.085,0.112,-0.1,-0.012,-0.456,-0.456,-0.456,-0.456
-0.456,0.107,-0.092,0.115,-0.085,0.112,-0.1,-0.013,-0.456,-0.456,-0.456,-0.456
-0.453,0.107,-0.092,0.115,-0.085,0.112,-0.1,-0.012,-0.453,-0.453,-0.453,-0.453
-0.453,0.108,-0.089,0.115,-0.085,0.112,-0.1,-0.012,-0.453,-0.453,-0.453,-0.453
-0.453,0.108,-0.089,0.115,-0.085,0.112,-0.1,-0.012,-0.453,-0.453,-0.453,-0.453
-0.452,0.108,-0.089,0.115,-0.085,0.112,-0.1,-0.012,-0.452,-0.452,-0.452,-0.452
-0.452,0.108,-0.089,0.115,-0.085,0.112,-0.1,-0.012,-0.452,-0.452,-0.452,-0.452
-0.452,0.107,-0.092,0.115,-0.085,0.112,-0.1,-0.012,-0.452,-0.452,-0.452,-0.452
-0.448,0.107,-0.092,0.115,-0.085,0.112,-0.1,-0.013,-0.448,-0.448,-0.448,-0.448
-0.448,0.108,-0.092,0.115,-0.085,0.112,-0.1,-0.013,-0.448,-0.448,-0.448,-0.448
-0.445,0.108,-0.092,0.115,-0.085,0.112,-0.1,-0.012,-0.445,-0.445,-0.445,-0.445
-0.445,0.108,-0.089,0.115,-0.085,0.112,-0.1,-0.012,-0.445,-0.445,-0.445,-0.445
-0.444,0.108,-0.089,0.115,-0.085,0.112,-0.1,-0.012,-0.444,-0.444,-0.444,-0.444
-0.441,0.108,-0.089,0.115,-0.085,0.112,-0.1,-0.012,-0.441,-0.441,-0.441,-0.441
-0.44,0.108,-0.089,0.115,-0.085,0.112,-0.1,-0.012,-0.44,-0.44,-0.44,-0.44
-0.437,0.108,-0.092,0.115,-0.085,0.112,-0.1,-0.012,-0.437,-0.437,-0.437,-0.437
-0.436,0.108,-0.092,0.115,-0.085,0.112,-0.1,-0.013,-0.436,-0.436,-0.436,-0.436
-0.432,0.108,-0.092,0.115,-0.085,0.112,-0.1,-0.012,-0.432,-0.432,-0.432,-0.432
-0.432,0.107,-0.092,0.115,-0.085,0.112,-0.1,-0.012,-0.432,-0.432,-0.432,-0.432
-0.428,0.107,-0.089,0.115,-0.085,0.112,-0.1,-0.012,-0.428,-0.428,-0.428,-0.428
-0.425,0.107,-0.089,0.115,-0.085,0.112,-0.1,-0.012,-0.425,-0.425,-0.425,-0.425
-0.424,0.108,-0.089,0.115,-0.085,0.112,-0.1,-0.012,-0.424,-0.424,-0.424,-0.424
-0.421,0.108,-0.089,0.115,-0.085,0.112,-0.1,-0.012,-0.421,-0.421,-0.421,-0.421
-0.417,0.108,-0.092,0.115,-0.085,0.112,-0.1,-0.012,-0.417,-0.417,-0.417,-0.417
-0.413,0.108,-0.092,0.115,-0.085,0.112,-0.1,-0.013,-0.413,-0.413,-0.413,-0.413
-0.409,0.107,-0.092,0.115,-0.085,0.112,-0.1,-0.012,-0.409,-0.409,-0.409,-0.409
-0.405,0.108,-0.092,0.115,-0.085,0.112,-0.1,-0.012,-0.405,-0.405,-0.405,-0.405
-0.405,0.108,-0.092,0.115,-0.085,0.112,-0.1,-0.012,-0.405,-0.405,-0.405,-0.405
-0.401,0.108,-0.089,0.115,-0.085,0.112,-0.1,-0.012,-0.401,-0.401,-0.401,-0.401
-0.397,0.108,-0.089,0.115,-0.085,0.112,-0.1,-0.012,-0.397,-0.397,-0.397,-0.397
-0.396,0.108,-0.089,0.115,-0.085,0.112,-0.1,-0.012,-0.396,-0.396,-0.396,-0.396
-0.389,0.108,-0.092,0.115,-0.085,0.112,-0.1,-0.012,-0.389,-0.389,-0.389,-0.389
-0.389,0.108,-0.092,0.115,-0.085,0.112,-0.1,-0.012,-0.389,-0.389,-0.389,-0.389
-0.384,0.108,-0.092,0.115,-0.085,0.112,-0.1,-0.013,-0.384,-0.384,-0.384,-0.384
-0.38,0.108,-0.092,0.115,-0.085,0.112,-0.1,-0.012,-0.38,-0.38,-0.38,-0.38
-0.376,0.108,-0.092,0.115,-0.085,0.112,-0.1,-0.012,-0.376,-0.376,-0.376,-0.376
-0.372,0.111,-0.089,0.115,-0.085,0.112,-0.1,-0.012,-0.372,-0.372,-0.372,-0.372
-0.368,0.111,-0.089,0.115,-0.085,0.112,-0.1,-0.012,-0.368,-0.368,-0.368,-0.368
-0.364,0.111,-0.089,0.115,-0.085,0.112,-0.1,-0.012,-0.364,-0.364,-0.364,-0.364
-0.36,0.111,-0.089,0.115,-0.085,0.112,-0.1,-0.012,-0.36,-0.36,-0.36,-0.36
-0.353,0.111,-0.092,0.115,-0.085,0.112,-0.1,-0.012,-0.353,-0.353,-0.353,-0.353
-0.349,0.111,-0.092,0.115,-0.085,0.112,-0.1,-0.013,-0.349,-0.349,-0.349,-0.349
-0.345,0.111,-0.092,0.115,-0.085,0.112,-0.1,-0.013,-0.345,-0.345,-0.345,-0.345
-0.341,0.111,-0.092,0.115,-0.085,0.112,-0.1,-0.012,-0.341,-0.341,-0.341,-0.341
-0.336,0.112,-0.089,0.115,-0.085,0.112,-0.1,-0.012,-0.336,-0.336,-0.336,-0.336
-0.332,0.112,-0.089,0.115,-0.085,0.112,-0.1,-0.012,-0.332,-0.332,-0.332,-0.332
-0.325,0.112,-0.089,0.115,-0.085,0.112,-0.1,-0.012,-0.325,-0.325,-0.325,-0.325
-0.321,0.112,-0.089,0.115,-0.085,0.112,-0.1,-0.012,-0.321,-0.321,-0.321,-0.321
-0.313,0.112,-0.089,0.115,-0.085,0.112,-0.1,-0.012,-0.313,-0.313,-0.313,-0.313
-0.309,0.112,-0.092,0.115,-0.085,0.112,-0.1,-0.013,-0.309,-0.309,-0.309,-0.309
-0.305,0.111,-0.092,0.115,-0.085,0.112,-0.1,-0.013,-0.305,-0.305,-0.305,-0.305
-0.3,0.111,-0.092,0.115,-0.085,0.112,-0.1,-0.012,-0.3,-0.3,-0.3,-0.3
-0.293,0.111,-0.092,0.115,-0.085,0.112,-0.1,-0.012,-0.293,-0.293,-0.293,-0.293
-0.288,0.112,-0.089,0.115,-0.085,0.112,-0.1,-0.012,-0.288,-0.288,-0.288,-0.288
-0.284,0.112,-0.089,0.115,-0.085,0.112,-0.1,-0.012,-0.284,-0.284,-0.284,-0.284
-0.277,0.112,-0.089,0.115,-0.085,0.112,-0.1,-0.012,-0.277,-0.277,-0.277,-0.277
-0.272,0.112,-0.089,0.115,-0.085,0.112,-0.1,-0.012,-0.272,-0.272,-0.272,-0.272
-0.264,0.112,-0.092,0.115,-0.085,0.112,-0.1,-0.012,-0.264,-0.264,-0.264,-0.264
-0.257,0.112,-0.092,0.115,-0.085,0.112,-0.1,-0.013,-0.257,-0.257,-0.257,-0.257
-0.252,0.112,-0.092,0.115,-0.085,0.112,-0.1,-0.012,-0.252,-0.252,-0.252,-0.252
-0.248,0.112,-0.092,0.115,-0.085,0.112,-0.1,-0.012,-0.248,-0.248,-0.248,-0.248
-0.241,0.115,-0.089,0.115,-0.085,0.112,-0.1,-0.012,-0.241,-0.241,-0.241,-0.241
-0.233,0.115,-0.089,0.115,-0.085,0.112,-0.1,-0.012,-0.233,-0.233,-0.233,-0.233
-0.228,0.115,-0.089,0.115,-0.085,0.112,-0.1,-0.012,-0.228,-0.228,-0.228,-0.228
-0.224,0.115,-0.089,0.115,-0.085,0.112,-0.1,-0.012,-0.224,-0.224,-0.224,-0.224
-0.217,0.115,-0.089,0.115,-0.085,0.112,-0.1,-0.012,-0.217,-0.217,-0.217,-0.217
-0.209,0.115,-0.092,0.115,-0.085,0.112,-0.1,-0.012,-0.209,-0.209,-0.209,-0.209
-0.204,0.115,-0.092,0.115,-0.085,0.112,-0.1,-0.012,-0.204,-0.204,-0.204,-0.204
-0.196,0.115,-0.092,0.115,-0.085,0.112,-0.1,-0.012,-0.196,-0.196,-0.196,-0.196
-0.189,0.116,-0.089,0.115,-0.085,0.112,-0.1,-0.012,-0.189,-0.189,-0.189,-0.189
-0.184,0.116,-0.089,0.115,-0.085,0.112,-0.1,-0.012,-0.184,-0.184,-0.184,-0.184
-0.176,0.116,-0.089,0.115,-0.085,0.112,-0.1,-0.012,-0.176,-0.176,-0.176,-0.176
-0.172,0.115,-0.089,0.115,-0.085,0.112,-0.1,-0.012,-0.172,-0.172,-0.172,-0.172
-0.161,0.115,-0.089,0.115,-0.085,0.112,-0.1,-0.012,-0.161,-0.161,-0.161,-0.161
-0.157,0.115,-0.092,0.115,-0.085,0.112,-0.1,-0.013,-0.157,-0.157,-0.157,-0.157
-0.149,0.115,-0.092,0.115,-0.085,0.112,-0.1,-0.013,-0.149,-0.149,-0.149,-0.149
-0.144,0.116,-0.092,0.115,-0.085,0.112,-0.1,-0.012,-0.144,-0.144,-0.144,-0.144
-0.136,0.116,-0.092,0.115,-0.085,0.112,-0.1,-0.012,-0.136,-0.136,-0.136,-0.136
-0.129,0.116,-0.089,0.115,-0.085,0.112,-0.1,-0.012,-0.129,-0.129,-0.129,-0.129
-0.121,0.119,-0.089,0.115,-0.085,0.112,-0.1,-0.012,-0.121,-0.121,-0.121,-0.121
-0.113,0.119,-0.089,0.115,-0.085,0.112,-0.1,-0.012,-0.113,-0.113,-0.113,-0.113
-0.105,0.119,-0.089,0.115,-0.085,0.112,-0.1,-0.012,-0.105,-0.105,-0.105,-0.105
-0.1,0.119,-0.092,0.115,-0.085,0.112,-0.1,-0.012,-0.1,-0.1,-0.1,-0.1
-0.092,0.119,-0.092,0.115,-0.085,0.112,-0.1,-0.013,-0.092,-0.092,-0.092,-0.092
-0.085,0.119,-0.092,0.115,-0.085,0.112,-0.1,-0.012,-0.085,-0.085,-0.085,-0.085
-0.077,0.119,-0.092,0.115,-0.085,0.112,-0.1,-0.012,-0.077,-0.077,-0.077,-0.077
-0.073,0.119,-0.089,0.115,-0.085,0.112,-0.1,-0.012,-0.073,-0.073,-0.073,-0.073
-0.065,0.12,-0.089,0.115,-0.085,0.112,-0.1,-0.012,-0.065,-0.065,-0.065,-0.065
-0.057,0.12,-0.089,0.115,-0.085,0.112,-0.1,-0.012,-0.057,-0.057,-0.057,-0.057
-0.049,0.12,-0.089,0.115,-0.085,0.112,-0.1,-0.012,-0.049,-0.049,-0.049,-0.049
-0.041,0.119,-0.089,0.115,-0.085,0.112,-0.1,-0.012,-0.041,-0.041,-0.041,-0.041
-0.036,0.119,-0.092,0.115,-0.085,0.112,-0.1,-0.013,-0.036,-0.036,-0.036,-0.036
-0.029,0.119,-0.092,0.115,-0.085,0.112,-0.1,-0.013,-0.029,-0.029,-0.029,-0.029
-0.021,0.119,-0.089,0.115,-0.085,0.112,-0.1,-0.012,-0.021,-0.021,-0.021,-0.021
-0.013,0.12,-0.092,0.115,-0.085,0.112,-0.1,-0.012,-0.013,-0.013,-0.013,-0.013
-0.004,0.12,-0.089,0.115,-0.085,0.112,-0.1,-0.012,-0.004,-0.004,-0.004,-0.004
0.003,0.12,-0.089,0.115,-0.085,0.112,-0.1,-0.012,0.003,0.003,0.003,0.003
0.011,0.12,-0.089,0.115,-0.085,0.112,-0.1,-0.012,0.011,0.011,0.011,0.011
0.019,0.123,-0.089,0.115,-0.085,0.112,-0.1,-0.012,0.019,0.019,0.019,0.019
0.027,0.12,-0.092,0.115,-0.085,0.112,-0.1,-0.012,0.027,0.027,0.027,0.027
0.032,0.123,-0.092,0.115,-0.085,0.112,-0.1,-0.013,0.032,0.032,0.032,0.032
0.039,0.123,-0.092,0.115,-0.085,0.112,-0.1,-0.012,0.039,0.039,0.039,0.039
0.047,0.123,-0.089,0.115,-0.085,0.112,-0.1,-0.012,0.047,0.047,0.047,0.047
0.056,0.123,-0.089,0.115,-0.085,0.112,-0.1,-0.012,0.056,0.056,0.056,0.056
0.064,0.123,-0.089,0.115,-0.085,0.112,-0.1,-0.012,0.064,0.064,0.064,0.064
0.071,0.123,-0.089,0.115,-0.085,0.112,-0.1,-0.012,0.071,0.071,0.071,0.071
0.079,0.123,-0.089,0.115,-0.085,0.112,-0.1,-0.012,0.079,0.079,0.079,0.079
0.087,0.12,-0.092,0.115,-0.085,0.112,-0.1,-0.012,0.087,0.087,0.087,0.087
0.095,0.123,-0.092,0.115,-0.085,0.112,-0.1,-0.012,0.095,0.095,0.095,0.095
0.1,0.123,-0.092,0.115,-0.085,0.112,-0.1,-0.013,0.1,0.1,0.1,0.1
0.108,0.123,-0.092,0.115,-0.085,0.112,-0.1,-0.012,0.108,0.108,0.108,0.108
0.115,0.124,-0.089,0.115,-0.085,0.112,-0.1,-0.012,0.115,0.115,0.115,0.115
0.123,0.124,-0.089,0.115,-0.085,0.112,-0.1,-0.012,0.123,0.123,0.123,0.123
0.128,0.124,-0.089,0.115,-0.085,0.112,-0.097,-0.012,0.128,0.128,0.128,0.128
0.136,0.124,-0.089,0.115,-0.085,0.112,-0.1,-0.012,0.136,0.136,0.136,0.136
0.144,0.124,-0.092,0.115,-0.085,0.112,-0.1,-0.013,0.144,0.144,0.144,0.144
0.155,0.124,-0.092,0.115,-0.085,0.112,-0.1,-0.013,0.155,0.155,0.155,0.155
0.159,0.124,-0.092,0.115,-0.085,0.112,-0.1,-0.012,0.159,0.159,0.159,0.159
0.167,0.124,-0.092,0.115,-0.085,0.112,-0.1,-0.012,0.167,0.167,0.167,0.167
0.176,0.127,-0.089,0.115,-0.085,0.112,-0.1,-0.012,0.176,0.176,0.176,0.176
0.18,0.127,-0.089,0.115,-0.085,0.112,-0.1,-0.012,0.18,0.18,0.18,0.18
0.188,0.127,-0.089,0.115,-0.085,0.112,-0.1,-0.012,0.188,0.188,0.188,0.188
0.196,0.127,-0.089,0.115,-0.085,0.112,-0.1,-0.012,0.196,0.196,0.196,0.196
0.203,0.127,-0.089,0.115,-0.085,0.112,-0.1,-0.012,0.203,0.203,0.203,0.203
0.208,0.124,-0.092,0.115,-0.085,0.112,-0.1,-0.012,0.208,0.208,0.208,0.208
0.216,0.124,-0.092,0.115,-0.085,0.112,-0.1,-0.013,0.216,0.216,0.216,0.216
0.223,0.124,-0.092,0.115,-0.085,0.112,-0.1,-0.012,0.223,0.223,0.223,0.223
0.231,0.124,-0.092,0.115,-0.085,0.112,-0.1,-0.012,0.231,0.231,0.231,0.231
0.235,0.127,-0.089,0.115,-0.085,0.112,-0.1,-0.012,0.235,0.235,0.235,0.235
0.244,0.127,-0.089,0.115,-0.085,0.112,-0.1,-0.012,0.244,0.244,0.244,0.244
0.251,0.127,-0.089,0.115,-0.085,0.112,-0.1,-0.012,0.251,0.251,0.251,0.251
0.259,0.127,-0.089,0.115,-0.085,0.112,-0.1,-0.012,0.259,0.259,0.259,0.259
0.263,0.127,-0.092,0.115,-0.085,0.112,-0.1,-0.013,0.263,0.263,0.263,0.263
0.272,0.127,-0.092,0.115,-0.085,0.112,-0.1,-0.013,0.272,0.272,0.272,0.272
0.276,0.128,-0.092,0.115,-0.085,0.112,-0.1,-0.013,0.276,0.276,0.276,0.276
0.284,0.128,-0.092,0.115,-0.085,0.112,-0.1,-0.012,0.284,0.284,0.284,0.284
0.291,0.128,-0.089,0.115,-0.085,0.112,-0.1,-0.012,0.291,0.291,0.291,0.291
0.296,0.128,-0.089,0.115,-0.085,0.112,-0.1,-0.012,0.296,0.296,0.296,0.296
0.303,0.128,-0.089,0.115,-0.084,0.112,-0.097,-0.012,0.303,0.303,0.303,0.303
0.308,0.128,-0.089,0.115,-0.085,0.112,-0.1,-0.012,0.308,0.308,0.308,0.308
0.315,0.128,-0.092,0.115,-0.085,0.112,-0.1,-0.012,0.315,0.315,0.315,0.315
0.32,0.128,-0.092,0.115,-0.085,0.112,-0.1,-0.013,0.32,0.32,0.32,0.32
0.327,0.128,-0.092,0.115,-0.085,0.112,-0.1,-0.012,0.327,0.327,0.327,0.327
0.335,0.128,-0.092,0.115,-0.085,0.112,-0.1,-0.012,0.335,0.335,0.335,0.335
0.34,0.128,-0.089,0.115,-0.085,0.112,-0.1,-0.012,0.34,0.34,0.34,0.34
0.347,0.128,-0.089,0.115,-0.085,0.112,-0.1,-0.012,0.347,0.347,0.347,0.347
0.352,0.128,-0.089,0.115,-0.085,0.112,-0.097,-0.012,0.352,0.352,0.352,0.352
0.359,0.128,-0.089,0.115,-0.085,0.112,-0.1,-0.012,0.359,0.359,0.359,0.359
0.363,0.128,-0.092,0.115,-0.085,0.112,-0.1,-0.012,0.363,0.363,0.363,0.363
0.371,0.128,-0.092,0.115,-0.085,0.112,-0.1,-0.013,0.371,0.371,0.371,0.371
0.375,0.128,-0.092,0.115,-0.085,0.112,-0.1,-0.013,0.375,0.375,0.375,0.375
0.38,0.131,-0.089,0.115,-0.085,0.112,-0.1,-0.012,0.38,0.38,0.38,0.38
0.384,0.131,-0.089,0.115,-0.085,0.112,-0.1,-0.012,0.384,0.384,0.384,0.384
0.392,0.131,-0.089,0.115,-0.085,0.112,-0.1,-0.012,0.392,0.392,0.392,0.392
0.396,0.131,-0.089,0.115,-0.085,0.112,-0.1,-0.012,0.396,0.396,0.396,0.396
0.403,0.131,-0.089,0.115,-0.085,0.112,-0.1,-0.012,0.403,0.403,0.403,0.403
0.404,0.131,-0.089,0.115,-0.085,0.112,-0.1,-0.012,0.404,0.404,0.404,0.404
0.411,0.131,-0.092,0.115,-0.085,0.112,-0.1,-0.012,0.411,0.411,0.411,0.411
0.415,0.131,-0.092,0.115,-0.085,0.112,-0.1,-0.013,0.415,0.415,0.415,0.415
0.42,0.131,-0.092,0.115,-0.085,0.112,-0.1,-0.012,0.42,0.42,0.42,0.42
0.423,0.131,-0.092,0.115,-0.085,0.112,-0.1,-0.012,0.423,0.423,0.423,0.423
0.431,0.132,-0.089,0.115,-0.085,0.112,-0.1,-0.012,0.431,0.431,0.431,0.431
0.436,0.132,-0.089,0.115,-0.085,0.112,-0.1,-0.012,0.436,0.436,0.436,0.436
0.439,0.132,-0.089,0.115,-0.085,0.112,-0.097,-0.012,0.439,0.439,0.439,0.439
0.444,0.132,-0.089,0.115,-0.085,0.112,-0.1,-0.012,0.444,0.444,0.444,0.444
0.448,0.131,-0.092,0.115,-0.085,0.112,-0.1,-0.012,0.448,0.448,0.448,0.448
0.451,0.131,-0.092,0.115,-0.085,0.112,-0.1,-0.013,0.451,0.451,0.451,0.451
0.456,0.132,-0.092,0.115,-0.085,0.112,-0.1,-0.012,0.456,0.456,0.456,0.456
0.459,0.132,-0.089,0.115,-0.085,0.112,-0.1,-0.012,0.459,0.459,0.459,0.459
0.464,0.131,-0.089,0.115,-0.085,0.112,-0.1,-0.012,0.464,0.464,0.464,0.464
0.467,0.131,-0.089,0.115,-0.085,0.112,-0.1,-0.012,0.467,0.467,0.467,0.467
0.472,0.131,-0.089,0.115,-0.085,0.112,-0.097,-0.012,0.472,0.472,0.472,0.472
0.475,0.131,-0.089,0.115,-0.085,0.112,-0.1,-0.012,0.475,0.475,0.475,0.475
0.48,0.131,-0.089,0.115,-0.085,0.112,-0.1,-0.012,0.48,0.48,0.48,0.48
0.483,0.131,-0.092,0.115,-0.085,0.112,-0.1,-0.013,0.483,0.483,0.483,0.483
0.484,0.131,-0.092,0.115,-0.085,0.112,-0.1,-0.012,0.484,0.484,0.484,0.484
0.488,0.131,-0.092,0.115,-0.085,0.112,-0.1,-0.012,0.488,0.488,0.488,0.488
0.491,0.131,-0.089,0.115,-0.085,0.112,-0.1,-0.012,0.491,0.491,0.491,0.491
0.495,0.132,-0.089,0.115,-0.085,0.112,-0.1,-0.012,0.495,0.495,0.495,0.495
0.496,0.132,-0.089,0.115,-0.085,0.112,-0.097,-0.012,0.496,0.496,0.496,0.496
0.499,0.132,-0.089,0.115,-0.085,0.112,-0.097,-0.012,0.499,0.499,0.499,0.499
0.503,0.132,-0.092,0.115,-0.085,0.112,-0.1,-0.012,0.503,0.503,0.503,0.503
0.507,0.132,-0.092,0.115,-0.085,0.112,-0.1,-0.013,0.507,0.507,0.507,0.507
0.508,0.132,-0.092,0.115,-0.085,0.112,-0.1,-0.013,0.508,0.508,0.508,0.508
0.511,0.132,-0.092,0.115,-0.085,0.112,-0.1,-0.012,0.511,0.511,0.511,0.511
0.512,0.132,-0.089,0.115,-0.085,0.112,-0.1,-0.012,0.512,0.512,0.512,0.512
0.516,0.132,-0.089,0.115,-0.085,0.112,-0.1,-0.012,0.516,0.516,0.516,0.516
0.516,0.132,-0.089,0.115,-0.085,0.112,-0.1,-0.012,0.516,0.516,0.516,0.516
0.519,0.132,-0.089,0.115,-0.085,0.112,-0.097,-0.012,0.519,0.519,0.519,0.519
0.523,0.132,-0.089,0.115,-0.085,0.112,-0.1,-0.012,0.523,0.523,0.523,0.523
0.523,0.132,-0.092,0.115,-0.085,0.112,-0.1,-0.013,0.523,0.523,0.523,0.523
0.523,0.132,-0.092,0.115,-0.085,0.112,-0.1,-0.013,0.523,0.523,0.523,0.523
0.524,0.132,-0.092,0.115,-0.085,0.112,-0.1,-0.012,0.524,0.524,0.524,0.524
0.528,0.132,-0.092,0.115,-0.085,0.112,-0.1,-0.012,0.528,0.528,0.528,0.528
0.528,0.135,-0.089,0.115,-0.085,0.112,-0.097,-0.012,0.528,0.528,0.528,0.528
0.527,0.135,-0.089,0.115,-0.085,0.112,-0.1,-0.012,0.527,0.527,0.527,0.527
0.531,0.135,-0.089,0.115,-0.085,0.112,-0.097,-0.012,0.531,0.531,0.531,0.531
0.531,0.135,-0.089,0.115,-0.085,0.112,-0.1,-0.012,0.531,0.531,0.531,0.531
0.532,0.135,-0.092,0.115,-0.085,0.112,-0.1,-0.012,0.532,0.532,0.532,0.532
0.532,0.132,-0.092,0.115,-0.085,0.112,-0.1,-0.013,0.532,0.532,0.532,0.532
0.535,0.132,-0.092,0.115,-0.085,0.112,-0.1,-0.012,0.535,0.535,0.535,0.535
0.535,0.132,-0.092,0.115,-0.085,0.112,-0.1,-0.012,0.535,0.535,0.535,0.535
0.532,0.135,-0.089,0.115,-0.085,0.112,-0.1,-0.012,0.532,0.532,0.532,0.532
0.536,0.135,-0.089,0.115,-0.085,0.112,-0.1,-0.012,0.536,0.536,0.536,0.536
0.532,0.135,-0.089,0.115,-0.085,0.112,-0.1,-0.012,0.532,0.532,0.532,0.532
0.532,0.135,-0.089,0.115,-0.085,0.112,-0.1,-0.012,0.532,0.532,0.532,0.532
0.535,0.135,-0.089,0.115,-0.085,0.112,-0.1,-0.012,0.535,0.535,0.535,0.535
0.532,0.132,-0.092,0.115,-0.085,0.112,-0.1,-0.013,0.532,0.532,0.532,0.532
0.535,0.132,-0.092,0.115,-0.085,0.112,-0.1,-0.013,0.535,0.535,0.535,0.535
0.532,0.132,-0.092,0.115,-0.085,0.112,-0.1,-0.012,0.532,0.532,0.532,0.532
0.535,0.135,-0.092,0.115,-0.085,0.112,-0.1,-0.012,0.535,0.535,0.535,0.535
0.531,0.135,-0.089,0.115,-0.085,0.112,-0.1,-0.012,0.531,0.531,0.531,0.531
0.531,0.135,-0.089,0.115,-0.085,0.112,-0.1,-0.012,0.531,0.531,0.531,0.531
0.532,0.135,-0.089,0.115,-0.085,0.112,-0.1,-0.012,0.532,0.532,0.532,0.532
0.531,0.135,-0.089,0.115,-0.085,0.112,-0.1,-0.012,0.531,0.531,0.531,0.531
0.528,0.132,-0.092,0.115,-0.085,0.112,-0.1,-0.013,0.528,0.528,0.528,0.528
0.528,0.132,-0.092,0.115,-0.085,0.112,-0.1,-0.013,0.528,0.528,0.528,0.528
0.527,0.132,-0.092,0.115,-0.085,0.112,-0.1,-0.012,0.527,0.527,0.527,0.527
0.524,0.132,-0.092,0.115,-0.085,0.112,-0.1,-0.012,0.524,0.524,0.524,0.524
0.523,0.132,-0.089,0.115,-0.085,0.112,-0.1,-0.012,0.523,0.523,0.523,0.523
0.523,0.132,-0.089,0.115,-0.085,0.112,-0.1,-0.012,0.523,0.523,0.523,0.523
0.519,0.132,-0.089,0.115,-0.085,0.112,-0.1,-0.012,0.519,0.519,0.519,0.519
0.519,0.132,-0.089,0.115,-0.085,0.112,-0.1,-0.012,0.519,0.519,0.519,0.519
0.516,0.132,-0.089,0.115,-0.085,0.112,-0.1,-0.012,0.516,0.516,0.516,0.516
0.515,0.132,-0.092,0.115,-0.085,0.112,-0.1,-0.013,0.515,0.515,0.515,0.515
0.515,0.132,-0.092,0.115,-0.085,0.112,-0.1,-0.013,0.515,0.515,0.515,0.515
0.508,0.132,-0.092,0.115,-0.085,0.112,-0.1,-0.012,0.508,0.508,0.508,0.508
0.507,0.132,-0.089,0.115,-0.085,0.112,-0.1,-0.012,0.507,0.507,0.507,0.507
0.507,0.132,-0.089,0.115,-0.085,0.112,-0.1,-0.012,0.507,0.507,0.507,0.507
0.503,0.132,-0.089,0.115,-0.085,0.112,-0.1,-0.012,0.503,0.503,0.503,0.503
0.5,0.132,-0.089,0.115,-0.085,0.112,-0.1,-0.012,0.5,0.5,0.5,0.5
0.496,0.132,-0.089,0.115,-0.085,0.112,-0.1,-0.012,0.496,0.496,0.496,0.496
0.492,0.131,-0.092,0.115,-0.085,0.112,-0.1,-0.013,0.492,0.492,0.492,0.492
0.492,0.131,-0.092,0.115,-0.085,0.112,-0.1,-0.013,0.492,0.492,0.492,0.492
0.488,0.131,-0.092,0.115,-0.085,0.112,-0.1,-0.012,0.488,0.488,0.488,0.488
0.484,0.131,-0.092,0.115,-0.085,0.112,-0.1,-0.012,0.484,0.484,0.484,0.484
0.48,0.131,-0.089,0.115,-0.085,0.112,-0.1,-0.012,0.48,0.48,0.48,0.48
0.479,0.131,-0.089,0.115,-0.085,0.112,-0.1,-0.012,0.479,0.479,0.479,0.479
0.475,0.131,-0.089,0.115,-0.085,0.112,-0.097,-0.012,0.475,0.475,0.475,0.475
0.471,0.131,-0.089,0.115,-0.085,0.112,-0.1,-0.012,0.471,0.471,0.471,0.471
0.468,0.131,-0.092,0.115,-0.085,0.112,-0.1,-0.012,0.468,0.468,0.468,0.468
0.46,0.131,-0.092,0.115,-0.085,0.112,-0.1,-0.013,0.46,0.46,0.46,0.46
0.46,0.132,-0.092,0.115,-0.085,0.112,-0.1,-0.012,0.46,0.46,0.46,0.46
0.455,0.132,-0.092,0.115,-0.085,0.112,-0.1,-0.012,0.455,0.455,0.455,0.455
0.451,0.132,-0.089,0.115,-0.085,0.112,-0.1,-0.012,0.451,0.451,0.451,0.451
0.447,0.132,-0.089,0.115,-0.085,0.112,-0.097,-0.012,0.447,0.447,0.447,0.447
0.443,0.132,-0.089,0.115,-0.085,0.112,-0.097,-0.012,0.443,0.443,0.443,0.443
0.436,0.132,-0.089,0.115,-0.085,0.112,-0.097,-0.012,0.436,0.436,0.436,0.436
0.435,0.132,-0.089,0.115,-0.085,0.112,-0.1,-0.012,0.435,0.435,0.435,0.435
0.428,0.131,-0.092,0.115,-0.085,0.112,-0.1,-0.013,0.428,0.428,0.428,0.428
0.424,0.131,-0.092,0.115,-0.085,0.112,-0.1,-0.013,0.424,0.424,0.424,0.424
0.419,0.131,-0.092,0.115,-0.085,0.112,-0.1,-0.012,0.419,0.419,0.419,0.419
0.415,0.131,-0.092,0.115,-0.085,0.112,-0.1,-0.012,0.415,0.415,0.415,0.415
0.408,0.131,-0.089,0.115,-0.085,0.112,-0.097,-0.012,0.408,0.408,0.408,0.408
0.404,0.131,-0.089,0.115,-0.085,0.112,-0.1,-0.012,0.404,0.404,0.404,0.404
0.4,0.131,-0.089,0.115,-0.085,0.112,-0.1,-0.012,0.4,0.4,0.4,0.4
0.395,0.131,-0.089,0.115,-0.085,0.112,-0.1,-0.012,0.395,0.395,0.395,0.395
0.388,0.131,-0.092,0.115,-0.085,0.112,-0.1,-0.012,0.388,0.388,0.388,0.388
0.384,0.128,-0.092,0.115,-0.085,0.112,-0.1,-0.012,0.384,0.384,0.384,0.384
0.376,0.131,-0.092,0.115,-0.085,0.112,-0.1,-0.012,0.376,0.376,0.376,0.376
0.372,0.128,-0.092,0.115,-0.085,0.112,-0.1,-0.012,0.372,0.372,0.372,0.372
0.367,0.131,-0.089,0.115,-0.085,0.112,-0.1,-0.012,0.367,0.367,0.367,0.367
0.363,0.128,-0.089,0.115,-0.085,0.112,-0.097,-0.012,0.363,0.363,0.363,0.363
0.356,0.128,-0.089,0.115,-0.085,0.112,-0.097,-0.012,0.356,0.356,0.356,0.356
0.352,0.128,-0.089,0.115,-0.085,0.112,-0.1,-0.012,0.352,0.352,0.352,0.352
0.347,0.128,-0.092,0.115,-0.085,0.112,-0.1,-0.013,0.347,0.347,0.347,0.347
0.339,0.127,-0.092,0.115,-0.085,0.112,-0.1,-0.013,0.339,0.339,0.339,0.339
0.332,0.128,-0.092,0.115,-0.085,0.112,-0.1,-0.012,0.332,0.332,0.332,0.332
0.327,0.128,-0.092,0.115,-0.085,0.112,-0.1,-0.012,0.327,0.327,0.327,0.327
0.323,0.128,-0.089,0.115,-0.085,0.112,-0.097,-0.012,0.323,0.323,0.323,0.323
0.312,0.128,-0.089,0.115,-0.085,0.112,-0.097,-0.012,0.312,0.312,0.312,0.312
0.308,0.128,-0.089,0.115,-0.085,0.112,-0.097,-0.012,0.308,0.308,0.308,0.308
0.3,0.128,-0.089,0.115,-0.085,0.112,-0.1,-0.012,0.3,0.3,0.3,0.3
0.295,0.128,-0.089,0.115,-0.085,0.112,-0.1,-0.012,0.295,0.295,0.295,0.295
0.288,0.128,-0.092,0.115,-0.085,0.112,-0.1,-0.013,0.288,0.288,0.288,0.288
0.284,0.128,-0.092,0.115,-0.085,0.112,-0.1,-0.013,0.284,0.284,0.284,0.284
0.275,0.128,-0.092,0.115,-0.085,0.112,-0.1,-0.012,0.275,0.275,0.275,0.275
0.268,0.128,-0.092,0.115,-0.085,0.112,-0.1,-0.012,0.268,0.268,0.268,0.268
0.264,0.127,-0.089,0.115,-0.085,0.112,-0.1,-0.012,0.264,0.264,0.264,0.264
0.256,0.127,-0.089,0.115,-0.085,0.112,-0.097,-0.012,0.256,0.256,0.256,0.256
0.248,0.127,-0.089,0.115,-0.085,0.112,-0.097,-0.012,0.248,0.248,0.248,0.248
0.243,0.127,-0.089,0.115,-0.085,0.112,-0.1,-0.012,0.243,0.243,0.243,0.243
0.236,0.124,-0.092,0.115,-0.085,0.112,-0.1,-0.012,0.236,0.236,0.236,0.236
0.227,0.124,-0.092,0.115,-0.085,0.112,-0.1,-0.013,0.227,0.227,0.227,0.227
0.22,0.124,-0.092,0.115,-0.085,0.112,-0.1,-0.012,0.22,0.22,0.22,0.22
0.215,0.124,-0.092,0.115,-0.085,0.112,-0.1,-0.012,0.215,0.215,0.215,0.215
0.208,0.124,-0.089,0.115,-0.085,0.112,-0.1,-0.012,0.208,0.208,0.208,0.208
0.2,0.127,-0.089,0.115,-0.085,0.112,-0.097,-0.012,0.2,0.2,0.2,0.2
0.195,0.127,-0.089,0.115,-0.085,0.112,-0.097,-0.012,0.195,0.195,0.195,0.195
0.187,0.127,-0.089,0.115,-0.085,0.112,-0.1,-0.012,0.187,0.187,0.187,0.187
0.18,0.127,-0.092,0.115,-0.085,0.112,-0.1,-0.013,0.18,0.18,0.18,0.18
0.172,0.124,-0.092,0.115,-0.085,0.112,-0.1,-0.012,0.172,0.172,0.172,0.172
0.164,0.124,-0.092,0.115,-0.085,0.112,-0.1,-0.012,0.164,0.164,0.164,0.164
0.159,0.124,-0.092,0.115,-0.085,0.112,-0.1,-0.012,0.159,0.159,0.159,0.159
0.148,0.124,-0.089,0.115,-0.085,0.112,-0.1,-0.012,0.148,0.148,0.148,0.148
0.144,0.124,-0.089,0.115,-0.085,0.112,-0.097,-0.012,0.144,0.144,0.144,0.144
0.136,0.124,-0.089,0.115,-0.085,0.112,-0.097,-0.012,0.136,0.136,0.136,0.136
0.127,0.124,-0.089,0.115,-0.085,0.112,-0.1,-0.012,0.127,0.127,0.127,0.127
0.123,0.124,-0.092,0.115,-0.085,0.112,-0.1,-0.012,0.123,0.123,0.123,0.123
0.116,0.123,-0.092,0.115,-0.085,0.112,-0.1,-0.013,0.116,0.116,0.116,0.116
0.107,0.123,-0.092,0.115,-0.085,0.112,-0.1,-0.013,0.107,0.107,0.107,0.107
0.1,0.123,-0.092,0.115,-0.085,0.112,-0.1,-0.012,0.1,0.1,0.1,0.1
0.092,0.123,-0.092,0.115,-0.085,0.112,-0.1,-0.012,0.092,0.092,0.092,0.092
0.084,0.123,-0.089,0.115,-0.085,0.112,-0.097,-0.012,0.084,0.084,0.084,0.084
0.076,0.123,-0.089,0.115,-0.085,0.112,-0.1,-0.012,0.076,0.076,0.076,0.076
0.071,0.123,-0.089,0.115,-0.085,0.112,-0.097,-0.012,0.071,0.071,0.071,0.071
0.063,0.123,-0.089,0.115,-0.085,0.112,-0.1,-0.012,0.063,0.063,0.063,0.063
0.055,0.123,-0.092,0.115,-0.085,0.112,-0.1,-0.013,0.055,0.055,0.055,0.055
0.047,0.123,-0.092,0.115,-0.085,0.112,-0.1,-0.013,0.047,0.047,0.047,0.047
0.039,0.123,-0.092,0.115,-0.085,0.112,-0.1,-0.012,0.039,0.039,0.039,0.039
0.035,0.123,-0.092,0.115,-0.085,0.112,-0.1,-0.012,0.035,0.035,0.035,0.035
0.023,0.123,-0.089,0.115,-0.085,0.112,-0.1,-0.012,0.023,0.023,0.023,0.023
0.016,0.123,-0.089,0.115,-0.085,0.112,-0.097,-0.012,0.016,0.016,0.016,0.016
0.011,0.12,-0.089,0.115,-0.085,0.112,-0.097,-0.012,0.011,0.011,0.011,0.011
0.004,0.12,-0.092,0.115,-0.085,0.112,-0.1,-0.012,0.004,0.004,0.004,0.004
-0.005,0.12,-0.092,0.115,-0.085,0.112,-0.1,-0.012,-0.005,-0.005,-0.005,-0.005
-0.013,0.12,-0.092,0.115,-0.085,0.112,-0.1,-0.013,-0.013,-0.013,-0.013,-0.013
-0.02,0.119,-0.092,0.115,-0.085,0.112,-0.1,-0.012,-0.02,-0.02,-0.02,-0.02
-0.028,0.119,-0.092,0.115,-0.085,0.112,-0.1,-0.012,-0.028,-0.028,-0.028,-0.028
-0.036,0.119,-0.089,0.115,-0.085,0.112,-0.097,-0.012,-0.036,-0.036,-0.036,-0.036
-0.045,0.119,-0.089,0.115,-0.085,0.112,-0.097,-0.012,-0.045,-0.045,-0.045,-0.045
-0.052,0.12,-0.089,0.115,-0.085,0.112,-0.097,-0.012,-0.052,-0.052,-0.052,-0.052
-0.057,0.12,-0.089,0.115,-0.085,0.112,-0.1,-0.012,-0.057,-0.057,-0.057,-0.057
-0.065,0.119,-0.092,0.115,-0.085,0.112,-0.1,-0.012,-0.065,-0.065,-0.065,-0.065
-0.072,0.119,-0.092,0.115,-0.085,0.112,-0.1,-0.013,-0.072,-0.072,-0.072,-0.072
-0.077,0.119,-0.092,0.115,-0.085,0.112,-0.1,-0.012,-0.077,-0.077,-0.077,-0.077
-0.085,0.119,-0.092,0.115,-0.085,0.112,-0.1,-0.012,-0.085,-0.085,-0.085,-0.085
-0.093,0.119,-0.092,0.115,-0.085,0.112,-0.1,-0.012,-0.093,-0.093,-0.093,-0.093
-0.101,0.119,-0.089,0.115,-0.085,0.112,-0.097,-0.012,-0.101,-0.101,-0.101,-0.101
-0.105,0.119,-0.089,0.115,-0.085,0.112,-0.097,-0.012,-0.105,-0.105,-0.105,-0.105
-0.113,0.119,-0.089,0.115,-0.085,0.112,-0.1,-0.012,-0.113,-0.113,-0.113,-0.113
-0.12,0.116,-0.092,0.115,-0.085,0.112,-0.1,-0.012,-0.12,-0.12,-0.12,-0.12
-0.129,0.116,-0.092,0.115,-0.085,0.112,-0.1,-0.013,-0.129,-0.129,-0.129,-0.129
-0.136,0.116,-0.092,0.115,-0.085,0.112,-0.1,-0.012,-0.136,-0.136,-0.136,-0.136
-0.144,0.116,-0.092,0.115,-0.085,0.112,-0.1,-0.012,-0.144,-0.144,-0.144,-0.144
-0.152,0.116,-0.089,0.115,-0.085,0.112,-0.1,-0.012,-0.152,-0.152,-0.152,-0.152
-0.156,0.116,-0.089,0.115,-0.085,0.112,-0.1,-0.012,-0.156,-0.156,-0.156,-0.156
-0.161,0.116,-0.089,0.115,-0.085,0.112,-0.097,-0.012,-0.161,-0.161,-0.161,-0.161
-0.169,0.115,-0.089,0.115,-0.085,0.112,-0.097,-0.012,-0.169,-0.169,-0.169,-0.169
-0.177,0.116,-0.089,0.115,-0.085,0.112,-0.1,-0.012,-0.177,-0.177,-0.177,-0.177
-0.184,0.116,-0.092,0.115,-0.085,0.112,-0.1,-0.013,-0.184,-0.184,-0.184,-0.184
-0.189,0.115,-0.092,0.115,-0.085,0.112,-0.1,-0.013,-0.189,-0.189,-0.189,-0.189
-0.197,0.115,-0.092,0.115,-0.085,0.112,-0.1,-0.012,-0.197,-0.197,-0.197,-0.197
-0.204,0.115,-0.092,0.115,-0.085,0.112,-0.1,-0.012,-0.204,-0.204,-0.204,-0.204
-0.209,0.115,-0.089,0.115,-0.085,0.112,-0.1,-0.012,-0.209,-0.209,-0.209,-0.209
-0.217,0.115,-0.089,0.115,-0.085,0.112,-0.097,-0.012,-0.217,-0.217,-0.217,-0.217
-0.224,0.115,-0.089,0.115,-0.085,0.112,-0.097,-0.012,-0.224,-0.224,-0.224,-0.224
-0.229,0.115,-0.089,0.115,-0.085,0.112,-0.1,-0.012,-0.229,-0.229,-0.229,-0.229
-0.236,0.115,-0.092,0.115,-0.085,0.112,-0.1,-0.012,-0.236,-0.236,-0.236,-0.236
-0.241,0.112,-0.092,0.115,-0.085,0.112,-0.1,-0.013,-0.241,-0.241,-0.241,-0.241
-0.249,0.112,-0.092,0.115,-0.085,0.112,-0.1,-0.013,-0.249,-0.249,-0.249,-0.249
-0.253,0.112,-0.092,0.115,-0.085,0.112,-0.1,-0.012,-0.253,-0.253,-0.253,-0.253
-0.26,0.112,-0.092,0.115,-0.085,0.112,-0.1,-0.012,-0.26,-0.26,-0.26,-0.26
-0.265,0.112,-0.089,0.115,-0.085,0.112,-0.1,-0.012,-0.265,-0.265,-0.265,-0.265
-0.272,0.112,-0.089,0.115,-0.085,0.112,-0.097,-0.012,-0.272,-0.272,-0.272,-0.272
-0.276,0.112,-0.089,0.115,-0.085,0.112,-0.1,-0.012,-0.276,-0.276,-0.276,-0.276
-0.284,0.112,-0.089,0.115,-0.085,0.112,-0.1,-0.012,-0.284,-0.284,-0.284,-0.284
-0.288,0.111,-0.092,0.115,-0.085,0.112,-0.1,-0.013,-0.288,-0.288,-0.288,-0.288
-0.292,0.111,-0.092,0.115,-0.085,0.112,-0.1,-0.013,-0.292,-0.292,-0.292,-0.292
-0.297,0.111,-0.092,0.115,-0.085,0.112,-0.1,-0.013,-0.297,-0.297,-0.297,-0.297
-0.304,0.111,-0.092,0.115,-0.085,0.112,-0.1,-0.012,-0.304,-0.304,-0.304,-0.304
-0.309,0.112,-0.089,0.115,-0.085,0.112,-0.1,-0.012,-0.309,-0.309,-0.309,-0.309
-0.313,0.112,-0.089,0.115,-0.085,0.112,-0.1,-0.012,-0.313,-0.313,-0.313,-0.313
-0.32,0.112,-0.089,0.115,-0.085,0.112,-0.097,-0.012,-0.32,-0.32,-0.32,-0.32
-0.324,0.112,-0.089,0.115,-0.085,0.112,-0.1,-0.012,-0.324,-0.324,-0.324,-0.324
-0.332,0.111,-0.092,0.115,-0.085,0.112,-0.1,-0.013,-0.332,-0.332,-0.332,-0.332
-0.336,0.111,-0.092,0.115,-0.085,0.112,-0.1,-0.013,-0.336,-0.336,-0.336,-0.336
-0.34,0.111,-0.092,0.115,-0.085,0.112,-0.1,-0.012,-0.34,-0.34,-0.34,-0.34
-0.345,0.111,-0.092,0.115,-0.085,0.112,-0.1,-0.012,-0.345,-0.345,-0.345,-0.345
-0.349,0.111,-0.092,0.115,-0.085,0.112,-0.1,-0.012,-0.349,-0.349,-0.349,-0.349
-0.353,0.111,-0.092,0.115,-0.085,0.112,-0.097,-0.012,-0.353,-0.353,-0.353,-0.353
-0.36,0.111,-0.089,0.115,-0.085,0.112,-0.097,-0.012,-0.36,-0.36,-0.36,-0.36
-0.364,0.111,-0.089,0.115,-0.085,0.112,-0.1,-0.012,-0.364,-0.364,-0.364,-0.364
-0.368,0.111,-0.092,0.115,-0.085,0.112,-0.1,-0.012,-0.368,-0.368,-0.368,-0.368
-0.373,0.108,-0.092,0.115,-0.085,0.112,-0.1,-0.013,-0.373,-0.373,-0.373,-0.373
-0.377,0.108,-0.092,0.115,-0.085,0.112,-0.1,-0.013,-0.377,-0.377,-0.377,-0.377
-0.38,0.108,-0.092,0.115,-0.085,0.112,-0.1,-0.012,-0.38,-0.38,-0.38,-0.38
-0.384,0.108,-0.092,0.115,-0.085,0.112,-0.1,-0.012,-0.384,-0.384,-0.384,-0.384
-0.388,0.108,-0.092,0.115,-0.085,0.112,-0.1,-0.012,-0.388,-0.388,-0.388,-0.388
-0.392,0.108,-0.092,0.115,-0.085,0.112,-0.1,-0.012,-0.392,-0.392,-0.392,-0.392
-0.396,0.108,-0.089,0.115,-0.085,0.112,-0.097,-0.012,-0.396,-0.396,-0.396,-0.396
-0.397,0.108,-0.092,0.115,-0.085,0.112,-0.1,-0.012,-0.397,-0.397,-0.397,-0.397
-0.401,0.108,-0.092,0.115,-0.085,0.112,-0.1,-0.013,-0.401,-0.401,-0.401,-0.401
-0.404,0.107,-0.092,0.115,-0.085,0.112,-0.1,-0.012,-0.404,-0.404,-0.404,-0.404
-0.405,0.108,-0.092,0.115,-0.085,0.112,-0.1,-0.012,-0.405,-0.405,-0.405,-0.405
-0.413,0.108,-0.092,0.115,-0.085,0.112,-0.1,-0.012,-0.413,-0.413,-0.413,-0.413
-0.416,0.108,-0.089,0.115,-0.085,0.112,-0.1,-0.012,-0.416,-0.416,-0.416,-0.416
-0.42,0.108,-0.089,0.115,-0.085,0.112,-0.1,-0.012,-0.42,-0.42,-0.42,-0.42
-0.421,0.108,-0.089,0.115,-0.085,0.112,-0.1,-0.012,-0.421,-0.421,-0.421,-0.421
-0.424,0.108,-0.092,0.115,-0.085,0.112,-0.1,-0.012,-0.424,-0.424,-0.424,-0.424
-0.428,0.107,-0.092,0.115,-0.085,0.112,-0.1,-0.013,-0.428,-0.428,-0.428,-0.428
-0.432,0.107,-0.092,0.115,-0.085,0.112,-0.1,-0.013,-0.432,-0.432,-0.432,-0.432
-0.432,0.107,-0.092,0.115,-0.085,0.112,-0.1,-0.012,-0.432,-0.432,-0.432,-0.432
-0.433,0.108,-0.092,0.115,-0.085,0.112,-0.1,-0.012,-0.433,-0.433,-0.433,-0.433
-0.433,0.108,-0.089,0.115,-0.085,0.112,-0.1,-0.012,-0.433,-0.433,-0.433,-0.433
-0.437,0.108,-0.092,0.115,-0.085,0.112,-0.1,-0.012,-0.437,-0.437,-0.437,-0.437
-0.44,0.108,-0.089,0.115,-0.085,0.112,-0.097,-0.012,-0.44,-0.44,-0.44,-0.44
-0.441,0.108,-0.092,0.115,-0.085,0.112,-0.1,-0.012,-0.441,-0.441,-0.441,-0.441
-0.444,0.108,-0.092,0.115,-0.085,0.112,-0.1,-0.012,-0.444,-0.444,-0.444,-0.444
-0.444,0.107,-0.092,0.115,-0.085,0.112,-0.1,-0.013,-0.444,-0.444,-0.444,-0.444
-0.445,0.107,-0.092,0.115,-0.085,0.112,-0.1,-0.012,-0.445,-0.445,-0.445,-0.445
-0.445,0.107,-0.092,0.115,-0.085,0.112,-0.1,-0.012,-0.445,-0.445,-0.445,-0.445
-0.449,0.108,-0.092,0.115,-0.085,0.112,-0.1,-0.012,-0.449,-0.449,-0.449,-0.449
-0.449,0.108,-0.092,0.115,-0.085,0.112,-0.1,-0.012,-0.449,-0.449,-0.449,-0.449
-0.452,0.108,-0.089,0.115,-0.085,0.112,-0.097,-0.012,-0.452,-0.452,-0.452,-0.452
-0.452,0.108,-0.089,0.115,-0.085,0.112,-0.1,-0.012,-0.452,-0.452,-0.452,-0.452
-0.453,0.107,-0.092,0.115,-0.085,0.112,-0.1,-0.012,-0.453,-0.453,-0.453,-0.453
-0.452,0.107,-0.092,0.115,-0.085,0.112,-0.1,-0.013,-0.452,-0.452,-0.452,-0.452
-0.456,0.107,-0.092,0.115,-0.085,0.112,-0.1,-0.013,-0.456,-0.456,-0.456,-0.456
-0.456,0.107,-0.092,0.115,-0.085,0.112,-0.1,-0.012,-0.456,-0.456,-0.456,-0.456
-0.457,0.107,-0.092,0.115,-0.085,0.112,-0.1,-0.012,-0.457,-0.457,-0.457,-0.457
-0.456,0.107,-0.092,0.115,-0.085,0.112,-0.1,-0.012,-0.456,-0.456,-0.456,-0.456
-0.456,0.108,-0.089,0.115,-0.085,0.112,-0.1,-0.012,-0.456,-0.456,-0.456,-0.456
-0.456,0.108,-0.089,0.115,-0.085,0.112,-0.097,-0.012,-0.456,-0.456,-0.456,-0.456
-0.456,0.107,-0.092,0.115,-0.085,0.112,-0.1,-0.012,-0.456,-0.456,-0.456,-0.456
-0.456,0.107,-0.092,0.115,-0.085,0.112,-0.1,-0.013,-0.456,-0.456,-0.456,-0.456
-0.456,0.107,-0.092,0.115,-0.085,0.112,-0.1,-0.013,-0.456,-0.456,-0.456,-0.456
-0.456,0.107,-0.092,0.115,-0.085,0.112,-0.1,-0.013,-0.456,-0.456,-0.456,-0.456
-0.456,0.107,-0.092,0.115,-0.085,0.112,-0.1,-0.012,-0.456,-0.456,-0.456,-0.456
-0.456,0.108,-0.092,0.115,-0.085,0.112,-0.1,-0.012,-0.456,-0.456,-0.456,-0.456
-0.453,0.108,-0.089,0.115,-0.085,0.112,-0.1,-0.012,-0.453,-0.453,-0.453,-0.453
-0.453,0.108,-0.089,0.115,-0.085,0.112,-0.097,-0.012,-0.453,-0.453,-0.453,-0.453
-0.452,0.108,-0.092,0.115,-0.085,0.112,-0.1,-0.012,-0.452,-0.452,-0.452,-0.452
-0.449,0.107,-0.092,0.115,-0.085,0.112,-0.1,-0.013,-0.449,-0.449,-0.449,-0.449
-0.449,0.107,-0.092,0.115,-0.085,0.112,-0.1,-0.013,-0.449,-0.449,-0.449,-0.449
-0.448,0.107,-0.092,0.115,-0.085,0.112,-0.1,-0.012,-0.448,-0.448,-0.448,-0.448
-0.448,0.107,-0.092,0.115,-0.085,0.112,-0.1,-0.012,-0.448,-0.448,-0.448,-0.448
-0.445,0.108,-0.092,0.115,-0.085,0.112,-0.1,-0.012,-0.445,-0.445,-0.445,-0.445
-0.444,0.108,-0.089,0.115,-0.085,0.112,-0.1,-0.012,-0.444,-0.444,-0.444,-0.444
-0.441,0.108,-0.089,0.115,-0.085,0.112,-0.097,-0.012,-0.441,-0.441,-0.441,-0.441
-0.44,0.108,-0.092,0.115,-0.085,0.112,-0.1,-0.012,-0.44,-0.44,-0.44,-0.44
-0.437,0.108,-0.092,0.115,-0.085,0.112,-0.1,-0.012,-0.437,-0.437,-0.437,-0.437
-0.437,0.107,-0.092,0.115,-0.085,0.112,-0.1,-0.013,-0.437,-0.437,-0.437,-0.437
-0.433,0.107,-0.092,0.115,-0.085,0.112,-0.1,-0.013,-0.433,-0.433,-0.433,-0.433
-0.432,0.107,-0.092,0.115,-0.085,0.112,-0.1,-0.013,-0.432,-0.432,-0.432,-0.432
-0.432,0.107,-0.092,0.115,-0.085,0.112,-0.1,-0.012,-0.432,-0.432,-0.432,-0.432
-0.425,0.107,-0.092,0.115,-0.085,0.112,-0.1,-0.012,-0.425,-0.425,-0.425,-0.425
-0.425,0.108,-0.092,0.115,-0.085,0.112,-0.097,-0.012,-0.425,-0.425,-0.425,-0.425
-0.42,0.108,-0.092,0.115,-0.085,0.112,-0.097,-0.012,-0.42,-0.42,-0.42,-0.42
-0.42,0.107,-0.092,0.115,-0.085,0.112,-0.1,-0.012,-0.42,-0.42,-0.42,-0.42
-0.416,0.107,-0.092,0.115,-0.085,0.112,-0.1,-0.013,-0.416,-0.416,-0.416,-0.416
-0.413,0.107,-0.092,0.115,-0.085,0.112,-0.1,-0.013,-0.413,-0.413,-0.413,-0.413
-0.409,0.107,-0.092,0.115,-0.085,0.112,-0.1,-0.012,-0.409,-0.409,-0.409,-0.409
-0.408,0.108,-0.092,0.115,-0.085,0.112,-0.1,-0.012,-0.408,-0.408,-0.408,-0.408
-0.401,0.108,-0.092,0.115,-0.085,0.112,-0.1,-0.012,-0.401,-0.401,-0.401,-0.401
-0.4,0.108,-0.092,0.115,-0.085,0.112,-0.097,-0.012,-0.4,-0.4,-0.4,-0.4
-0.397,0.108,-0.089,0.115,-0.085,0.112,-0.097,-0.012,-0.397,-0.397,-0.397,-0.397
-0.392,0.108,-0.092,0.115,-0.085,0.112,-0.1,-0.012,-0.392,-0.392,-0.392,-0.392
-0.388,0.108,-0.092,0.115,-0.085,0.112,-0.1,-0.013,-0.388,-0.388,-0.388,-0.388
-0.381,0.108,-0.092,0.112,-0.085,0.112,-0.1,-0.013,-0.381,-0.381,-0.381,-0.381
-0.381,0.108,-0.092,0.115,-0.085,0.112,-0.1,-0.013,-0.381,-0.381,-0.381,-0.381
-0.376,0.108,-0.092,0.115,-0.085,0.112,-0.1,-0.013,-0.376,-0.376,-0.376,-0.376
-0.372,0.108,-0.092,0.115,-0.085,0.112,-0.1,-0.012,-0.372,-0.372,-0.372,-0.372
-0.368,0.111,-0.092,0.115,-0.085,0.112,-0.1,-0.012,-0.368,-0.368,-0.368,-0.368
-0.364,0.111,-0.089,0.115,-0.085,0.112,-0.097,-0.012,-0.364,-0.364,-0.364,-0.364
-0.361,0.111,-0.092,0.115,-0.085,0.112,-0.1,-0.012,-0.361,-0.361,-0.361,-0.361
-0.356,0.111,-0.092,0.115,-0.085,0.112,-0.1,-0.012,-0.356,-0.356,-0.356,-0.356
-0.349,0.111,-0.092,0.115,-0.085,0.112,-0.1,-0.013,-0.349,-0.349,-0.349,-0.349
-0.344,0.111,-0.092,0.115,-0.085,0.112,-0.1,-0.013,-0.344,-0.344,-0.344,-0.344
-0.341,0.111,-0.092,0.115,-0.085,0.112,-0.1,-0.012,-0.341,-0.341,-0.341,-0.341
-0.336,0.111,-0.092,0.115,-0.085,0.112,-0.1,-0.012,-0.336,-0.336,-0.336,-0.336
-0.332,0.111,-0.092,0.115,-0.085,0.112,-0.1,-0.012,-0.332,-0.332,-0.332,-0.332
-0.328,0.112,-0.089,0.115,-0.085,0.112,-0.097,-0.012,-0.328,-0.328,-0.328,-0.328
-0.321,0.112,-0.089,0.115,-0.085,0.112,-0.097,-0.012,-0.321,-0.321,-0.321,-0.321
-0.317,0.112,-0.089,0.115,-0.085,0.112,-0.1,-0.012,-0.317,-0.317,-0.317,-0.317
-0.313,0.111,-0.092,0.115,-0.085,0.112,-0.1,-0.013,-0.313,-0.313,-0.313,-0.313
-0.305,0.111,-0.092,0.115,-0.085,0.112,-0.1,-0.013,-0.305,-0.305,-0.305,-0.305
-0.304,0.111,-0.092,0.115,-0.085,0.112,-0.1,-0.013,-0.304,-0.304,-0.304,-0.304
-0.296,0.111,-0.092,0.115,-0.085,0.112,-0.1,-0.012,-0.296,-0.296,-0.296,-0.296
-0.289,0.111,-0.092,0.115,-0.085,0.112,-0.1,-0.012,-0.289,-0.289,-0.289,-0.289
-0.285,0.112,-0.089,0.115,-0.085,0.112,-0.097,-0.012,-0.285,-0.285,-0.285,-0.285
-0.281,0.112,-0.089,0.115,-0.085,0.112,-0.097,-0.012,-0.281,-0.281,-0.281,-0.281
-0.273,0.112,-0.092,0.115,-0.085,0.112,-0.1,-0.012,-0.273,-0.273,-0.273,-0.273
-0.268,0.112,-0.092,0.115,-0.085,0.112,-0.1,-0.013,-0.268,-0.268,-0.268,-0.268
-0.261,0.112,-0.092,0.112,-0.085,0.112,-0.1,-0.013,-0.261,-0.261,-0.261,-0.261
-0.257,0.112,-0.092,0.115,-0.085,0.112,-0.1,-0.012,-0.257,-0.257,-0.257,-0.257
-0.249,0.112,-0.092,0.115,-0.085,0.112,-0.1,-0.012,-0.249,-0.249,-0.249,-0.249
-0.244,0.112,-0.092,0.115,-0.085,0.112,-0.1,-0.012,-0.244,-0.244,-0.244,-0.244
-0.24,0.115,-0.089,0.115,-0.085,0.112,-0.097,-0.012,-0.24,-0.24,-0.24,-0.24
-0.232,0.115,-0.089,0.115,-0.085,0.112,-0.097,-0.012,-0.232,-0.232,-0.232,-0.232
-0.224,0.115,-0.092,0.115,-0.085,0.112,-0.097,-0.012,-0.224,-0.224,-0.224,-0.224
-0.217,0.115,-0.092,0.115,-0.085,0.112,-0.1,-0.012,-0.217,-0.217,-0.217,-0.217
-0.212,0.115,-0.092,0.115,-0.085,0.112,-0.1,-0.013,-0.212,-0.212,-0.212,-0.212
-0.204,0.115,-0.092,0.115,-0.085,0.112,-0.1,-0.013,-0.204,-0.204,-0.204,-0.204
-0.2,0.115,-0.092,0.115,-0.085,0.112,-0.1,-0.012,-0.2,-0.2,-0.2,-0.2
-0.193,0.115,-0.092,0.115,-0.085,0.112,-0.1,-0.012,-0.193,-0.193,-0.193,-0.193
-0.188,0.116,-0.089,0.115,-0.085,0.112,-0.1,-0.012,-0.188,-0.188,-0.188,-0.188
-0.18,0.116,-0.089,0.115,-0.085,0.112,-0.097,-0.012,-0.18,-0.18,-0.18,-0.18
-0.172,0.115,-0.089,0.115,-0.085,0.112,-0.097,-0.012,-0.172,-0.172,-0.172,-0.172
-0.168,0.115,-0.089,0.115,-0.085,0.112,-0.1,-0.012,-0.168,-0.168,-0.168,-0.168
-0.16,0.115,-0.092,0.115,-0.085,0.112,-0.1,-0.012,-0.16,-0.16,-0.16,-0.16
-0.152,0.115,-0.092,0.115,-0.085,0.112,-0.1,-0.013,-0.152,-0.152,-0.152,-0.152
-0.145,0.116,-0.092,0.115,-0.085,0.112,-0.1,-0.012,-0.145,-0.145,-0.145,-0.145
-0.14,0.116,-0.092,0.115,-0.085,0.112,-0.1,-0.012,-0.14,-0.14,-0.14,-0.14
-0.132,0.116,-0.089,0.115,-0.085,0.112,-0.1,-0.012,-0.132,-0.132,-0.132,-0.132
-0.124,0.116,-0.092,0.115,-0.085,0.112,-0.097,-0.012,-0.124,-0.124,-0.124,-0.124
-0.117,0.119,-0.089,0.115,-0.085,0.112,-0.097,-0.012,-0.117,-0.117,-0.117,-0.117
-0.109,0.119,-0.092,0.115,-0.085,0.112,-0.1,-0.012,-0.109,-0.109,-0.109,-0.109
-0.101,0.119,-0.092,0.115,-0.085,0.112,-0.1,-0.013,-0.101,-0.101,-0.101,-0.101
-0.096,0.119,-0.092,0.115,-0.085,0.112,-0.1,-0.013,-0.096,-0.096,-0.096,-0.096
-0.089,0.119,-0.092,0.115,-0.085,0.112,-0.1,-0.013,-0.089,-0.089,-0.089,-0.089
-0.08,0.119,-0.092,0.115,-0.085,0.112,-0.1,-0.012,-0.08,-0.08,-0.08,-0.08
-0.076,0.119,-0.092,0.115,-0.085,0.112,-0.1,-0.012,-0.076,-0.076,-0.076,-0.076
-0.064,0.119,-0.089,0.115,-0.085,0.112,-0.097,-0.012,-0.064,-0.064,-0.064,-0.064
-0.06,0.12,-0.089,0.115,-0.085,0.112,-0.097,-0.012,-0.06,-0.06,-0.06,-0.06
-0.052,0.12,-0.092,0.115,-0.085,0.112,-0.1,-0.012,-0.052,-0.052,-0.052,-0.052
-0.044,0.119,-0.092,0.115,-0.085,0.112,-0.1,-0.012,-0.044,-0.044,-0.044,-0.044
-0.037,0.119,-0.092,0.115,-0.085,0.112,-0.1,-0.013,-0.037,-0.037,-0.037,-0.037
-0.029,0.119,-0.092,0.115,-0.085,0.112,-0.1,-0.013,-0.029,-0.029,-0.029,-0.029
-0.024,0.119,-0.092,0.115,-0.085,0.112,-0.1,-0.012,-0.024,-0.024,-0.024,-0.024
-0.013,0.12,-0.092,0.115,-0.085,0.112,-0.1,-0.012,-0.013,-0.013,-0.013,-0.013
-0.009,0.12,-0.089,0.115,-0.085,0.112,-0.097,-0.012,-0.009,-0.009,-0.009,-0.009
0,0.12,-0.089,0.115,-0.085,0.112,-0.097,-0.012,0,0,0,0
0.007,0.12,-0.089,0.115,-0.085,0.112,-0.097,-0.012,0.007,0.007,0.007,0.007
0.015,0.12,-0.092,0.115,-0.085,0.112,-0.1,-0.012,0.015,0.015,0.015,0.015
0.023,0.12,-0.092,0.115,-0.085,0.112,-0.1,-0.012,0.023,0.023,0.023,0.023
0.031,0.12,-0.092,0.115,-0.085,0.112,-0.1,-0.013,0.031,0.031,0.031,0.031
0.036,0.12,-0.092,0.115,-0.085,0.112,-0.1,-0.012,0.036,0.036,0.036,0.036
0.044,0.123,-0.092,0.115,-0.085,0.112,-0.1,-0.012,0.044,0.044,0.044,0.044
0.055,0.123,-0.092,0.115,-0.085,0.112,-0.1,-0.012,0.055,0.055,0.055,0.055
0.063,0.123,-0.089,0.115,-0.085,0.112,-0.097,-0.012,0.063,0.063,0.063,0.063
0.068,0.123,-0.089,0.115,-0.085,0.112,-0.097,-0.012,0.068,0.068,0.068,0.068
0.075,0.123,-0.092,0.115,-0.085,0.112,-0.1,-0.012,0.075,0.075,0.075,0.075
0.084,0.12,-0.092,0.115,-0.085,0.112,-0.1,-0.013,0.084,0.084,0.084,0.084
0.091,0.12,-0.092,0.115,-0.085,0.112,-0.1,-0.013,0.091,0.091,0.091,0.091
0.099,0.123,-0.092,0.115,-0.085,0.112,-0.1,-0.012,0.099,0.099,0.099,0.099
0.104,0.123,-0.092,0.115,-0.085,0.112,-0.1,-0.012,0.104,0.104,0.104,0.104
0.112,0.123,-0.092,0.115,-0.085,0.112,-0.1,-0.012,0.112,0.112,0.112,0.112
0.12,0.124,-0.092,0.115,-0.085,0.112,-0.097,-0.012,0.12,0.12,0.12,0.12
0.128,0.124,-0.089,0.115,-0.085,0.112,-0.097,-0.012,0.128,0.128,0.128,0.128
0.135,0.124,-0.092,0.115,-0.085,0.112,-0.1,-0.012,0.135,0.135,0.135,0.135
0.143,0.124,-0.092,0.115,-0.085,0.112,-0.1,-0.012,0.143,0.143,0.143,0.143
0.148,0.124,-0.092,0.115,-0.085,0.112,-0.1,-0.013,0.148,0.148,0.148,0.148
0.156,0.124,-0.092,0.115,-0.085,0.112,-0.1,-0.013,0.156,0.156,0.156,0.156
0.164,0.124,-0.092,0.115,-0.085,0.112,-0.1,-0.012,0.164,0.164,0.164,0.164
0.168,0.124,-0.092,0.115,-0.085,0.112,-0.1,-0.012,0.168,0.168,0.168,0.168
0.176,0.127,-0.092,0.115,-0.085,0.112,-0.097,-0.012,0.176,0.176,0.176,0.176
0.183,0.127,-0.089,0.115,-0.085,0.112,-0.097,-0.012,0.183,0.183,0.183,0.183
0.191,0.127,-0.089,0.115,-0.085,0.112,-0.097,-0.012,0.191,0.191,0.191,0.191
0.199,0.127,-0.092,0.115,-0.085,0.112,-0.1,-0.012,0.199,0.199,0.199,0.199
0.207,0.127,-0.092,0.115,-0.085,0.112,-0.1,-0.013,0.207,0.207,0.207,0.207
0.215,0.124,-0.092,0.115,-0.085,0.112,-0.1,-0.013,0.215,0.215,0.215,0.215
0.22,0.124,-0.092,0.115,-0.085,0.112,-0.1,-0.012,0.22,0.22,0.22,0.22
0.228,0.124,-0.092,0.115,-0.085,0.112,-0.1,-0.012,0.228,0.228,0.228,0.228
0.235,0.127,-0.092,0.115,-0.085,0.112,-0.1,-0.012,0.235,0.235,0.235,0.235
0.243,0.127,-0.092,0.115,-0.085,0.112,-0.1,-0.012,0.243,0.243,0.243,0.243
0.248,0.127,-0.089,0.115,-0.085,0.112,-0.097,-0.012,0.248,0.248,0.248,0.248
0.255,0.127,-0.092,0.115,-0.085,0.112,-0.1,-0.012,0.255,0.255,0.255,0.255
0.263,0.127,-0.092,0.115,-0.085,0.112,-0.1,-0.013,0.263,0.263,0.263,0.263
0.267,0.127,-0.092,0.115,-0.085,0.112,-0.1,-0.013,0.267,0.267,0.267,0.267
0.275,0.128,-0.092,0.115,-0.085,0.112,-0.1,-0.013,0.275,0.275,0.275,0.275
0.283,0.128,-0.092,0.115,-0.085,0.112,-0.1,-0.012,0.283,0.283,0.283,0.283
0.287,0.128,-0.092,0.115,-0.085,0.112,-0.1,-0.012,0.287,0.287,0.287,0.287
0.295,0.128,-0.089,0.115,-0.085,0.112,-0.097,-0.012,0.295,0.295,0.295,0.295
0.3,0.128,-0.089,0.115,-0.085,0.112,-0.097,-0.012,0.3,0.3,0.3,0.3
0.307,0.128,-0.092,0.115,-0.085,0.112,-0.1,-0.012,0.307,0.307,0.307,0.307
0.315,0.128,-0.092,0.115,-0.085,0.112,-0.1,-0.012,0.315,0.315,0.315,0.315
0.319,0.128,-0.092,0.115,-0.085,0.112,-0.1,-0.013,0.319,0.319,0.319,0.319
0.324,0.128,-0.092,0.115,-0.085,0.112,-0.1,-0.013,0.324,0.324,0.324,0.324
0.332,0.128,-0.092,0.115,-0.085,0.112,-0.1,-0.012,0.332,0.332,0.332,0.332
0.339,0.128,-0.092,0.115,-0.085,0.112,-0.1,-0.012,0.339,0.339,0.339,0.339
0.344,0.128,-0.092,0.115,-0.085,0.112,-0.1,-0.012,0.344,0.344,0.344,0.344
0.348,0.128,-0.092,0.115,-0.085,0.112,-0.097,-0.012,0.348,0.348,0.348,0.348
0.355,0.128,-0.092,0.115,-0.085,0.112,-0.097,-0.012,0.355,0.355,0.355,0.355
0.36,0.128,-0.092,0.115,-0.085,0.112,-0.1,-0.012,0.36,0.36,0.36,0.36
0.367,0.128,-0.092,0.115,-0.085,0.112,-0.1,-0.012,0.367,0.367,0.367,0.367
0.372,0.128,-0.092,0.112,-0.085,0.112,-0.1,-0.013,0.372,0.372,0.372,0.372
0.376,0.128,-0.092,0.115,-0.085,0.112,-0.1,-0.013,0.376,0.376,0.376,0.376
0.383,0.131,-0.092,0.115,-0.085,0.112,-0.1,-0.012,0.383,0.383,0.383,0.383
0.387,0.131,-0.092,0.115,-0.085,0.112,-0.1,-0.012,0.387,0.387,0.387,0.387
0.392,0.131,-0.089,0.115,-0.085,0.112,-0.097,-0.012,0.392,0.392,0.392,0.392
0.399,0.131,-0.089,0.115,-0.085,0.112,-0.097,-0.012,0.399,0.399,0.399,0.399
0.404,0.131,-0.092,0.115,-0.085,0.112,-0.1,-0.012,0.404,0.404,0.404,0.404
0.408,0.131,-0.092,0.115,-0.085,0.112,-0.1,-0.013,0.408,0.408,0.408,0.408
0.412,0.131,-0.092,0.112,-0.085,0.112,-0.1,-0.013,0.412,0.412,0.412,0.412
0.416,0.131,-0.092,0.115,-0.085,0.112,-0.1,-0.013,0.416,0.416,0.416,0.416
0.42,0.131,-0.092,0.115,-0.085,0.112,-0.1,-0.012,0.42,0.42,0.42,0.42
0.428,0.131,-0.092,0.115,-0.085,0.112,-0.1,-0.012,0.428,0.428,0.428,0.428
0.432,0.132,-0.092,0.115,-0.085,0.112,-0.097,-0.012,0.432,0.432,0.432,0.432
0.435,0.132,-0.089,0.115,-0.085,0.112,-0.097,-0.012,0.435,0.435,0.435,0.435
0.443,0.132,-0.092,0.115,-0.085,0.112,-0.1,-0.012,0.443,0.443,0.443,0.443
0.447,0.132,-0.092,0.115,-0.085,0.112,-0.1,-0.012,0.447,0.447,0.447,0.447
0.448,0.131,-0.092,0.115,-0.085,0.112,-0.1,-0.013,0.448,0.448,0.448,0.448
0.452,0.131,-0.092,0.115,-0.085,0.112,-0.1,-0.012,0.452,0.452,0.452,0.452
0.459,0.132,-0.092,0.115,-0.085,0.112,-0.1,-0.012,0.459,0.459,0.459,0.459
0.46,0.132,-0.092,0.115,-0.085,0.112,-0.1,-0.012,0.46,0.46,0.46,0.46
0.464,0.131,-0.092,0.115,-0.085,0.112,-0.097,-0.012,0.464,0.464,0.464,0.464
0.468,0.131,-0.092,0.115,-0.085,0.112,-0.097,-0.012,0.468,0.468,0.468,0.468
0.472,0.131,-0.092,0.115,-0.085,0.112,-0.097,-0.012,0.472,0.472,0.472,0.472
0.475,0.131,-0.092,0.115,-0.085,0.112,-0.1,-0.012,0.475,0.475,0.475,0.475
0.48,0.131,-0.092,0.115,-0.085,0.112,-0.1,-0.013,0.48,0.48,0.48,0.48
0.483,0.131,-0.092,0.112,-0.085,0.112,-0.1,-0.013,0.483,0.483,0.483,0.483
0.488,0.131,-0.092,0.115,-0.085,0.112,-0.1,-0.013,0.488,0.488,0.488,0.488
0.491,0.131,-0.092,0.115,-0.085,0.112,-0.1,-0.012,0.491,0.491,0.491,0.491
0.492,0.131,-0.092,0.115,-0.085,0.112,-0.097,-0.012,0.492,0.492,0.492,0.492
0.495,0.132,-0.092,0.115,-0.085,0.112,-0.1,-0.012,0.495,0.495,0.495,0.495
0.499,0.132,-0.092,0.115,-0.085,0.112,-0.097,-0.012,0.499,0.499,0.499,0.499
0.5,0.132,-0.092,0.115,-0.085,0.112,-0.1,-0.012,0.5,0.5,0.5,0.5
0.503,0.132,-0.092,0.115,-0.085,0.112,-0.1,-0.013,0.503,0.503,0.503,0.503
0.507,0.132,-0.092,0.115,-0.085,0.112,-0.1,-0.013,0.507,0.507,0.507,0.507
0.508,0.132,-0.092,0.115,-0.085,0.112,-0.1,-0.012,0.508,0.508,0.508,0.508
0.511,0.132,-0.092,0.115,-0.085,0.112,-0.1,-0.012,0.511,0.511,0.511,0.511
0.515,0.132,-0.092,0.115,-0.085,0.112,-0.1,-0.012,0.515,0.515,0.515,0.515
0.515,0.132,-0.092,0.115,-0.085,0.112,-0.1,-0.012,0.515,0.515,0.515,0.515
0.516,0.132,-0.092,0.115,-0.085,0.112,-0.097,-0.012,0.516,0.516,0.516,0.516
0.519,0.132,-0.092,0.115,-0.085,0.112,-0.1,-0.012,0.519,0.519,0.519,0.519
0.52,0.132,-0.092,0.115,-0.085,0.112,-0.1,-0.012,0.52,0.52,0.52,0.52
0.523,0.132,-0.092,0.112,-0.085,0.112,-0.1,-0.013,0.523,0.523,0.523,0.523
0.527,0.132,-0.092,0.115,-0.085,0.112,-0.1,-0.013,0.527,0.527,0.527,0.527
0.524,0.132,-0.092,0.115,-0.085,0.112,-0.1,-0.012,0.524,0.524,0.524,0.524
0.527,0.132,-0.092,0.115,-0.085,0.112,-0.1,-0.012,0.527,0.527,0.527,0.527
0.528,0.135,-0.092,0.115,-0.085,0.112,-0.1,-0.012,0.528,0.528,0.528,0.528
0.528,0.135,-0.089,0.115,-0.085,0.112,-0.097,-0.012,0.528,0.528,0.528,0.528
0.531,0.135,-0.089,0.115,-0.085,0.112,-0.097,-0.012,0.531,0.531,0.531,0.531
0.532,0.135,-0.092,0.115,-0.085,0.112,-0.1,-0.012,0.532,0.532,0.532,0.532
0.532,0.132,-0.092,0.115,-0.085,0.112,-0.1,-0.013,0.532,0.532,0.532,0.532
0.535,0.132,-0.092,0.115,-0.085,0.112,-0.1,-0.013,0.535,0.535,0.535,0.535
0.532,0.132,-0.092,0.115,-0.085,0.112,-0.1,-0.012,0.532,0.532,0.532,0.532
0.535,0.132,-0.092,0.115,-0.085,0.112,-0.1,-0.012,0.535,0.535,0.535,0.535
0.532,0.135,-0.092,0.115,-0.085,0.112,-0.1,-0.012,0.532,0.532,0.532,0.532
0.535,0.135,-0.089,0.115,-0.085,0.112,-0.097,-0.012,0.535,0.535,0.535,0.535
0.532,0.135,-0.089,0.115,-0.085,0.112,-0.097,-0.012,0.532,0.532,0.532,0.532
0.535,0.135,-0.092,0.115,-0.085,0.112,-0.1,-0.012,0.535,0.535,0.535,0.535
0.535,0.132,-0.092,0.112,-0.085,0.112,-0.1,-0.013,0.535,0.535,0.535,0.535
0.535,0.132,-0.092,0.115,-0.085,0.112,-0.1,-0.013,0.535,0.535,0.535,0.535
0.532,0.132,-0.092,0.115,-0.085,0.112,-0.1,-0.012,0.532,0.532,0.532,0.532
0.535,0.132,-0.092,0.115,-0.085,0.112,-0.1,-0.012,0.535,0.535,0.535,0.535
0.532,0.135,-0.092,0.115,-0.085,0.112,-0.1,-0.012,0.532,0.532,0.532,0.532
0.532,0.135,-0.092,0.115,-0.085,0.112,-0.1,-0.012,0.532,0.532,0.532,0.532
0.532,0.135,-0.089,0.115,-0.085,0.112,-0.097,-0.012,0.532,0.532,0.532,0.532
0.528,0.135,-0.092,0.115,-0.085,0.112,-0.097,-0.012,0.528,0.528,0.528,0.528
0.528,0.132,-0.092,0.115,-0.085,0.112,-0.1,-0.012,0.528,0.528,0.528,0.528
0.527,0.132,-0.092,0.112,-0.085,0.112,-0.1,-0.013,0.527,0.527,0.527,0.527
0.528,0.132,-0.092,0.115,-0.085,0.112,-0.1,-0.013,0.528,0.528,0.528,0.528
0.527,0.132,-0.092,0.115,-0.085,0.112,-0.1,-0.012,0.527,0.527,0.527,0.527
0.524,0.132,-0.092,0.115,-0.085,0.112,-0.1,-0.012,0.524,0.524,0.524,0.524
0.523,0.132,-0.092,0.115,-0.085,0.112,-0.097,-0.012,0.523,0.523,0.523,0.523
0.52,0.132,-0.092,0.115,-0.085,0.112,-0.097,-0.012,0.52,0.52,0.52,0.52
0.519,0.132,-0.092,0.115,-0.085,0.112,-0.097,-0.012,0.519,0.519,0.519,0.519
0.516,0.132,-0.092,0.115,-0.085,0.112,-0.1,-0.012,0.516,0.516,0.516,0.516
0.515,0.132,-0.092,0.115,-0.085,0.112,-0.1,-0.013,0.515,0.515,0.515,0.515
0.511,0.132,-0.092,0.112,-0.085,0.112,-0.1,-0.013,0.511,0.511,0.511,0.511
0.511,0.132,-0.092,0.115,-0.085,0.112,-0.1,-0.013,0.511,0.511,0.511,0.511
0.508,0.132,-0.092,0.115,-0.085,0.112,-0.1,-0.012,0.508,0.508,0.508,0.508
0.507,0.132,-0.092,0.115,-0.085,0.112,-0.1,-0.012,0.507,0.507,0.507,0.507
0.504,0.132,-0.092,0.115,-0.085,0.112,-0.1,-0.012,0.504,0.504,0.504,0.504
0.503,0.132,-0.092,0.115,-0.085,0.112,-0.097,-0.012,0.503,0.503,0.503,0.503
0.496,0.132,-0.092,0.115,-0.085,0.112,-0.1,-0.012,0.496,0.496,0.496,0.496
0.495,0.131,-0.092,0.115,-0.085,0.112,-0.1,-0.013,0.495,0.495,0.495,0.495
0.492,0.131,-0.092,0.112,-0.085,0.112,-0.1,-0.013,0.492,0.492,0.492,0.492
0.488,0.131,-0.092,0.115,-0.085,0.112,-0.1,-0.012,0.488,0.488,0.488,0.488
0.487,0.131,-0.092,0.115,-0.085,0.112,-0.1,-0.012,0.487,0.487,0.487,0.487
0.483,0.131,-0.092,0.115,-0.085,0.112,-0.1,-0.012,0.483,0.483,0.483,0.483
0.48,0.131,-0.092,0.115,-0.085,0.112,-0.097,-0.012,0.48,0.48,0.48,0.48
0.475,0.131,-0.092,0.115,-0.085,0.112,-0.097,-0.012,0.475,0.475,0.475,0.475
0.472,0.131,-0.092,0.115,-0.085,0.112,-0.1,-0.012,0.472,0.472,0.472,0.472
0.468,0.131,-0.092,0.115,-0.085,0.112,-0.1,-0.012,0.468,0.468,0.468,0.468
0.464,0.131,-0.092,0.112,-0.085,0.112,-0.1,-0.013,0.464,0.464,0.464,0.464
0.46,0.132,-0.092,0.112,-0.085,0.112,-0.1,-0.013,0.46,0.46,0.46,0.46
0.456,0.132,-0.092,0.115,-0.085,0.112,-0.1,-0.012,0.456,0.456,0.456,0.456
0.455,0.132,-0.092,0.115,-0.085,0.112,-0.1,-0.012,0.455,0.455,0.455,0.455
0.448,0.132,-0.092,0.115,-0.085,0.112,-0.1,-0.012,0.448,0.448,0.448,0.448
0.444,0.132,-0.089,0.115,-0.085,0.112,-0.097,-0.012,0.444,0.444,0.444,0.444
0.44,0.132,-0.089,0.115,-0.085,0.112,-0.1,-0.012,0.44,0.44,0.44,0.44
0.436,0.132,-0.092,0.115,-0.085,0.112,-0.1,-0.012,0.436,0.436,0.436,0.436
0.431,0.131,-0.092,0.112,-0.085,0.112,-0.1,-0.013,0.431,0.431,0.431,0.431
0.427,0.131,-0.092,0.115,-0.085,0.112,-0.1,-0.013,0.427,0.427,0.427,0.427
0.42,0.131,-0.092,0.115,-0.085,0.112,-0.1,-0.013,0.42,0.42,0.42,0.42
0.419,0.131,-0.092,0.115,-0.085,0.112,-0.1,-0.012,0.419,0.419,0.419,0.419
0.411,0.131,-0.092,0.115,-0.085,0.112,-0.1,-0.012,0.411,0.411,0.411,0.411
0.407,0.131,-0.092,0.115,-0.085,0.112,-0.097,-0.012,0.407,0.407,0.407,0.407
0.4,0.131,-0.089,0.115,-0.085,0.112,-0.097,-0.012,0.4,0.4,0.4,0.4
0.396,0.131,-0.092,0.115,-0.085,0.112,-0.1,-0.012,0.396,0.396,0.396,0.396
0.391,0.131,-0.092,0.112,-0.085,0.112,-0.1,-0.013,0.391,0.391,0.391,0.391
0.384,0.128,-0.092,0.112,-0.085,0.112,-0.1,-0.013,0.384,0.384,0.384,0.384
0.38,0.128,-0.092,0.112,-0.085,0.112,-0.1,-0.013,0.38,0.38,0.38,0.38
0.375,0.128,-0.092,0.115,-0.085,0.112,-0.1,-0.013,0.375,0.375,0.375,0.375
0.368,0.131,-0.089,0.115,-0.085,0.112,-0.097,-0.012,0.368,0.368,0.368,0.368
0.364,0.128,-0.092,0.115,-0.085,0.112,-0.1,-0.012,0.364,0.364,0.364,0.364
0.359,0.128,-0.089,0.115,-0.085,0.112,-0.097,-0.012,0.359,0.359,0.359,0.359
0.355,0.128,-0.092,0.115,-0.085,0.112,-0.1,-0.012,0.355,0.355,0.355,0.355
0.348,0.128,-0.092,0.115,-0.085,0.112,-0.1,-0.012,0.348,0.348,0.348,0.348
0.34,0.127,-0.092,0.112,-0.085,0.112,-0.1,-0.013,0.34,0.34,0.34,0.34
0.336,0.128,-0.092,0.115,-0.085,0.112,-0.1,-0.013,0.336,0.336,0.336,0.336
0.328,0.128,-0.092,0.112,-0.085,0.112,-0.1,-0.012,0.328,0.328,0.328,0.328
0.323,0.128,-0.092,0.115,-0.085,0.112,-0.1,-0.012,0.323,0.323,0.323,0.323
0.319,0.128,-0.092,0.115,-0.085,0.112,-0.1,-0.012,0.319,0.319,0.319,0.319
0.308,0.128,-0.092,0.115,-0.085,0.112,-0.097,-0.012,0.308,0.308,0.308,0.308
0.304,0.128,-0.092,0.115,-0.085,0.112,-0.097,-0.012,0.304,0.304,0.304,0.304
0.299,0.128,-0.092,0.115,-0.085,0.112,-0.1,-0.012,0.299,0.299,0.299,0.299
0.292,0.128,-0.092,0.112,-0.085,0.112,-0.1,-0.013,0.292,0.292,0.292,0.292
0.287,0.128,-0.092,0.112,-0.085,0.112,-0.1,-0.013,0.287,0.287,0.287,0.287
0.279,0.128,-0.092,0.115,-0.085,0.112,-0.1,-0.013,0.279,0.279,0.279,0.279
0.272,0.128,-0.092,0.115,-0.085,0.112,-0.1,-0.013,0.272,0.272,0.272,0.272
0.264,0.127,-0.092,0.115,-0.085,0.112,-0.1,-0.012,0.264,0.264,0.264,0.264
0.26,0.127,-0.089,0.115,-0.085,0.112,-0.097,-0.012,0.26,0.26,0.26,0.26
0.252,0.127,-0.089,0.115,-0.085,0.112,-0.097,-0.012,0.252,0.252,0.252,0.252
0.247,0.127,-0.092,0.115,-0.085,0.112,-0.1,-0.012,0.247,0.247,0.247,0.247
0.24,0.127,-0.092,0.112,-0.085,0.112,-0.1,-0.013,0.24,0.24,0.24,0.24
0.231,0.124,-0.092,0.112,-0.085,0.112,-0.1,-0.013,0.231,0.231,0.231,0.231
0.224,0.124,-0.092,0.112,-0.085,0.112,-0.1,-0.013,0.224,0.224,0.224,0.224
0.22,0.124,-0.092,0.115,-0.085,0.112,-0.1,-0.013,0.22,0.22,0.22,0.22
0.212,0.124,-0.092,0.115,-0.085,0.112,-0.1,-0.012,0.212,0.212,0.212,0.212
0.204,0.127,-0.092,0.115,-0.085,0.112,-0.1,-0.012,0.204,0.204,0.204,0.204
0.196,0.127,-0.092,0.115,-0.085,0.112,-0.097,-0.012,0.196,0.196,0.196,0.196
0.191,0.127,-0.092,0.115,-0.085,0.112,-0.1,-0.012,0.191,0.191,0.191,0.191
0.183,0.127,-0.092,0.115,-0.085,0.112,-0.1,-0.012,0.183,0.183,0.183,0.183
0.175,0.124,-0.092,0.112,-0.085,0.112,-0.1,-0.013,0.175,0.175,0.175,0.175
0.168,0.124,-0.092,0.115,-0.085,0.112,-0.1,-0.013,0.168,0.168,0.168,0.168
0.16,0.124,-0.092,0.115,-0.085,0.112,-0.1,-0.013,0.16,0.16,0.16,0.16
0.155,0.124,-0.092,0.115,-0.085,0.112,-0.1,-0.012,0.155,0.155,0.155,0.155
0.147,0.124,-0.092,0.115,-0.085,0.112,-0.1,-0.012,0.147,0.147,0.147,0.147
0.14,0.124,-0.092,0.115,-0.085,0.112,-0.097,-0.012,0.14,0.14,0.14,0.14
0.132,0.124,-0.089,0.115,-0.085,0.112,-0.1,-0.012,0.132,0.132,0.132,0.132
0.124,0.124,-0.092,0.115,-0.085,0.112,-0.1,-0.012,0.124,0.124,0.124,0.124
0.12,0.123,-0.092,0.112,-0.085,0.112,-0.1,-0.013,0.12,0.12,0.12,0.12
0.111,0.123,-0.092,0.115,-0.085,0.112,-0.1,-0.013,0.111,0.111,0.111,0.111
0.104,0.123,-0.092,0.115,-0.085,0.112,-0.1,-0.013,0.104,0.104,0.104,0.104
0.096,0.123,-0.092,0.115,-0.085,0.112,-0.1,-0.012,0.096,0.096,0.096,0.096
0.088,0.123,-0.092,0.115,-0.085,0.112,-0.1,-0.012,0.088,0.088,0.088,0.088
0.083,0.123,-0.092,0.115,-0.085,0.112,-0.097,-0.012,0.083,0.083,0.083,0.083
0.075,0.123,-0.092,0.115,-0.085,0.112,-0.097,-0.012,0.075,0.075,0.075,0.075
0.067,0.123,-0.092,0.115,-0.085,0.112,-0.1,-0.012,0.067,0.067,0.067,0.067
0.059,0.123,-0.092,0.112,-0.085,0.112,-0.1,-0.013,0.059,0.059,0.059,0.059
0.051,0.123,-0.092,0.112,-0.085,0.112,-0.1,-0.013,0.051,0.051,0.051,0.051
0.044,0.123,-0.092,0.112,-0.085,0.112,-0.1,-0.013,0.044,0.044,0.044,0.044
0.036,0.12,-0.092,0.115,-0.085,0.112,-0.1,-0.012,0.036,0.036,0.036,0.036
0.028,0.123,-0.092,0.115,-0.085,0.112,-0.1,-0.012,0.028,0.028,0.028,0.028
0.02,0.123,-0.092,0.115,-0.085,0.112,-0.1,-0.012,0.02,0.02,0.02,0.02
0.015,0.12,-0.092,0.115,-0.085,0.112,-0.097,-0.012,0.015,0.015,0.015,0.015
0.007,0.12,-0.092,0.115,-0.085,0.112,-0.1,-0.012,0.007,0.007,0.007,0.007
-0.001,0.12,-0.092,0.115,-0.085,0.112,-0.1,-0.012,-0.001,-0.001,-0.001,-0.001
-0.009,0.12,-0.092,0.112,-0.085,0.112,-0.1,-0.013,-0.009,-0.009,-0.009,-0.009
-0.017,0.119,-0.092,0.112,-0.085,0.112,-0.1,-0.013,-0.017,-0.017,-0.017,-0.017
-0.024,0.119,-0.092,0.112,-0.085,0.112,-0.1,-0.013,-0.024,-0.024,-0.024,-0.024
-0.032,0.119,-0.092,0.115,-0.085,0.112,-0.1,-0.012,-0.032,-0.032,-0.032,-0.032
-0.037,0.119,-0.092,0.115,-0.085,0.112,-0.1,-0.012,-0.037,-0.037,-0.037,-0.037
-0.045,0.119,-0.092,0.115,-0.085,0.112,-0.097,-0.012,-0.045,-0.045,-0.045,-0.045
-0.053,0.12,-0.092,0.115,-0.085,0.112,-0.097,-0.012,-0.053,-0.053,-0.053,-0.053
-0.06,0.119,-0.092,0.115,-0.085,0.112,-0.1,-0.012,-0.06,-0.06,-0.06,-0.06
-0.068,0.119,-0.092,0.115,-0.085,0.112,-0.1,-0.013,-0.068,-0.068,-0.068,-0.068
-0.073,0.119,-0.092,0.112,-0.085,0.112,-0.1,-0.013,-0.073,-0.073,-0.073,-0.073
-0.081,0.119,-0.092,0.112,-0.085,0.112,-0.1,-0.013,-0.081,-0.081,-0.081,-0.081
-0.089,0.119,-0.092,0.112,-0.085,0.112,-0.1,-0.012,-0.089,-0.089,-0.089,-0.089
-0.096,0.119,-0.092,0.115,-0.085,0.112,-0.1,-0.012,-0.096,-0.096,-0.096,-0.096
-0.104,0.119,-0.092,0.115,-0.085,0.112,-0.097,-0.012,-0.104,-0.104,-0.104,-0.104
-0.112,0.119,-0.089,0.115,-0.085,0.112,-0.097,-0.012,-0.112,-0.112,-0.112,-0.112
-0.116,0.116,-0.092,0.115,-0.085,0.112,-0.1,-0.012,-0.116,-0.116,-0.116,-0.116
-0.124,0.116,-0.092,0.112,-0.085,0.112,-0.1,-0.013,-0.124,-0.124,-0.124,-0.124
-0.132,0.116,-0.092,0.112,-0.085,0.112,-0.1,-0.013,-0.132,-0.132,-0.132,-0.132
-0.137,0.116,-0.092,0.112,-0.085,0.112,-0.1,-0.013,-0.137,-0.137,-0.137,-0.137
-0.145,0.116,-0.092,0.115,-0.085,0.112,-0.1,-0.013,-0.145,-0.145,-0.145,-0.145
-0.152,0.115,-0.092,0.115,-0.085,0.112,-0.1,-0.012,-0.152,-0.152,-0.152,-0.152
-0.16,0.115,-0.092,0.115,-0.085,0.112,-0.1,-0.012,-0.16,-0.16,-0.16,-0.16
-0.168,0.115,-0.092,0.115,-0.085,0.112,-0.097,-0.012,-0.168,-0.168,-0.168,-0.168
-0.173,0.115,-0.092,0.115,-0.085,0.112,-0.1,-0.012,-0.173,-0.173,-0.173,-0.173
-0.18,0.116,-0.092,0.115,-0.085,0.112,-0.1,-0.012,-0.18,-0.18,-0.18,-0.18
-0.188,0.115,-0.092,0.112,-0.085,0.112,-0.1,-0.013,-0.188,-0.188,-0.188,-0.188
-0.196,0.115,-0.092,0.112,-0.085,0.112,-0.1,-0.013,-0.196,-0.196,-0.196,-0.196
-0.197,0.115,-0.092,0.112,-0.085,0.112,-0.1,-0.013,-0.197,-0.197,-0.197,-0.197
-0.205,0.115,-0.092,0.115,-0.085,0.112,-0.1,-0.013,-0.205,-0.205,-0.205,-0.205
-0.209,0.115,-0.092,0.115,-0.085,0.112,-0.1,-0.012,-0.209,-0.209,-0.209,-0.209
-0.221,0.115,-0.092,0.115,-0.085,0.112,-0.1,-0.012,-0.221,-0.221,-0.221,-0.221
-0.225,0.115,-0.092,0.115,-0.085,0.112,-0.097,-0.012,-0.225,-0.225,-0.225,-0.225
-0.233,0.115,-0.092,0.115,-0.085,0.112,-0.1,-0.012,-0.233,-0.233,-0.233,-0.233
-0.237,0.112,-0.092,0.112,-0.085,0.112,-0.1,-0.013,-0.237,-0.237,-0.237,-0.237
-0.244,0.112,-0.092,0.112,-0.085,0.112,-0.1,-0.013,-0.244,-0.244,-0.244,-0.244
-0.248,0.112,-0.092,0.112,-0.085,0.112,-0.1,-0.013,-0.248,-0.248,-0.248,-0.248
-0.256,0.112,-0.092,0.115,-0.085,0.112,-0.1,-0.012,-0.256,-0.256,-0.256,-0.256
-0.261,0.112,-0.092,0.115,-0.085,0.112,-0.1,-0.012,-0.261,-0.261,-0.261,-0.261
-0.269,0.112,-0.092,0.115,-0.085,0.112,-0.097,-0.012,-0.269,-0.269,-0.269,-0.269
-0.273,0.112,-0.092,0.115,-0.085,0.112,-0.097,-0.012,-0.273,-0.273,-0.273,-0.273
-0.277,0.112,-0.092,0.115,-0.085,0.112,-0.1,-0.012,-0.277,-0.277,-0.277,-0.277
-0.285,0.111,-0.092,0.112,-0.085,0.112,-0.1,-0.013,-0.285,-0.285,-0.285,-0.285
-0.293,0.111,-0.092,0.112,-0.085,0.112,-0.1,-0.013,-0.293,-0.293,-0.293,-0.293
-0.296,0.111,-0.092,0.112,-0.085,0.112,-0.1,-0.013,-0.296,-0.296,-0.296,-0.296
-0.3,0.111,-0.092,0.115,-0.085,0.112,-0.1,-0.012,-0.3,-0.3,-0.3,-0.3
-0.308,0.112,-0.092,0.115,-0.085,0.112,-0.1,-0.012,-0.308,-0.308,-0.308,-0.308
-0.313,0.112,-0.092,0.115,-0.085,0.112,-0.1,-0.012,-0.313,-0.313,-0.313,-0.313
-0.317,0.112,-0.092,0.115,-0.085,0.112,-0.097,-0.012,-0.317,-0.317,-0.317,-0.317
-0.325,0.112,-0.092,0.115,-0.085,0.112,-0.097,-0.012,-0.325,-0.325,-0.325,-0.325
-0.329,0.111,-0.092,0.115,-0.085,0.112,-0.1,-0.012,-0.329,-0.329,-0.329,-0.329
-0.333,0.111,-0.092,0.112,-0.085,0.112,-0.1,-0.013,-0.333,-0.333,-0.333,-0.333
-0.337,0.111,-0.092,0.112,-0.085,0.112,-0.1,-0.013,-0.337,-0.337,-0.337,-0.337
-0.341,0.111,-0.092,0.115,-0.085,0.112,-0.1,-0.013,-0.341,-0.341,-0.341,-0.341
-0.349,0.111,-0.092,0.115,-0.085,0.112,-0.1,-0.012,-0.349,-0.349,-0.349,-0.349
-0.353,0.111,-0.092,0.115,-0.085,0.112,-0.1,-0.012,-0.353,-0.353,-0.353,-0.353
-0.357,0.111,-0.092,0.115,-0.085,0.112,-0.097,-0.012,-0.357,-0.357,-0.357,-0.357
-0.361,0.111,-0.092,0.115,-0.085,0.112,-0.097,-0.012,-0.361,-0.361,-0.361,-0.361
-0.368,0.111,-0.092,0.115,-0.085,0.112,-0.1,-0.012,-0.368,-0.368,-0.368,-0.368
-0.369,0.108,-0.092,0.112,-0.085,0.112,-0.1,-0.013,-0.369,-0.369,-0.369,-0.369
-0.373,0.108,-0.092,0.112,-0.085,0.112,-0.1,-0.013,-0.373,-0.373,-0.373,-0.373
-0.377,0.108,-0.092,0.115,-0.085,0.112,-0.1,-0.013,-0.377,-0.377,-0.377,-0.377
-0.381,0.108,-0.092,0.112,-0.085,0.112,-0.1,-0.013,-0.381,-0.381,-0.381,-0.381
-0.385,0.108,-0.092,0.115,-0.085,0.112,-0.1,-0.012,-0.385,-0.385,-0.385,-0.385
-0.388,0.108,-0.092,0.115,-0.085,0.112,-0.1,-0.012,-0.388,-0.388,-0.388,-0.388
-0.392,0.108,-0.092,0.115,-0.085,0.112,-0.1,-0.012,-0.392,-0.392,-0.392,-0.392
-0.397,0.108,-0.092,0.115,-0.085,0.112,-0.1,-0.012,-0.397,-0.397,-0.397,-0.397
-0.4,0.108,-0.092,0.115,-0.085,0.112,-0.1,-0.013,-0.4,-0.4,-0.4,-0.4
-0.404,0.107,-0.092,0.112,-0.085,0.112,-0.1,-0.013,-0.404,-0.404,-0.404,-0.404
-0.408,0.107,-0.092,0.115,-0.085,0.112,-0.1,-0.013,-0.408,-0.408,-0.408,-0.408
-0.409,0.107,-0.092,0.115,-0.085,0.112,-0.1,-0.012,-0.409,-0.409,-0.409,-0.409
-0.416,0.107,-0.092,0.115,-0.085,0.112,-0.1,-0.012,-0.416,-0.416,-0.416,-0.416
-0.416,0.108,-0.092,0.115,-0.085,0.112,-0.1,-0.012,-0.416,-0.416,-0.416,-0.416
-0.417,0.107,-0.092,0.115,-0.085,0.112,-0.097,-0.012,-0.417,-0.417,-0.417,-0.417
-0.424,0.107,-0.092,0.115,-0.085,0.112,-0.1,-0.012,-0.424,-0.424,-0.424,-0.424
-0.424,0.107,-0.092,0.115,-0.085,0.112,-0.1,-0.012,-0.424,-0.424,-0.424,-0.424
-0.428,0.107,-0.092,0.112,-0.085,0.112,-0.1,-0.013,-0.428,-0.428,-0.428,-0.428
-0.428,0.107,-0.092,0.115,-0.085,0.112,-0.1,-0.013,-0.428,-0.428,-0.428,-0.428
-0.432,0.107,-0.092,0.115,-0.085,0.112,-0.1,-0.012,-0.432,-0.432,-0.432,-0.432
-0.433,0.108,-0.092,0.115,-0.085,0.112,-0.1,-0.012,-0.433,-0.433,-0.433,-0.433
-0.436,0.108,-0.092,0.115,-0.085,0.112,-0.1,-0.012,-0.436,-0.436,-0.436,-0.436
-0.437,0.108,-0.092,0.115,-0.085,0.112,-0.1,-0.012,-0.437,-0.437,-0.437,-0.437
-0.441,0.108,-0.092,0.115,-0.085,0.112,-0.097,-0.012,-0.441,-0.441,-0.441,-0.441
-0.441,0.108,-0.092,0.115,-0.085,0.112,-0.1,-0.012,-0.441,-0.441,-0.441,-0.441
-0.444,0.107,-0.092,0.115,-0.085,0.112,-0.1,-0.012,-0.444,-0.444,-0.444,-0.444
-0.445,0.107,-0.092,0.112,-0.085,0.112,-0.1,-0.013,-0.445,-0.445,-0.445,-0.445
-0.448,0.107,-0.092,0.112,-0.085,0.112,-0.1,-0.013,-0.448,-0.448,-0.448,-0.448
-0.448,0.107,-0.092,0.112,-0.085,0.112,-0.1,-0.013,-0.448,-0.448,-0.448,-0.448
-0.452,0.107,-0.092,0.115,-0.085,0.112,-0.1,-0.012,-0.452,-0.452,-0.452,-0.452
-0.452,0.108,-0.092,0.115,-0.085,0.112,-0.1,-0.012,-0.452,-0.452,-0.452,-0.452
-0.449,0.108,-0.092,0.115,-0.085,0.112,-0.097,-0.012,-0.449,-0.449,-0.449,-0.449
-0.453,0.107,-0.092,0.115,-0.085,0.112,-0.1,-0.012,-0.453,-0.453,-0.453,-0.453
-0.452,0.107,-0.092,0.115,-0.085,0.112,-0.1,-0.013,-0.452,-0.452,-0.452,-0.452
-0.453,0.107,-0.092,0.112,-0.085,0.112,-0.1,-0.013,-0.453,-0.453,-0.453,-0.453
-0.456,0.107,-0.092,0.112,-0.085,0.112,-0.1,-0.013,-0.456,-0.456,-0.456,-0.456
-0.456,0.107,-0.092,0.112,-0.085,0.112,-0.1,-0.012,-0.456,-0.456,-0.456,-0.456
-0.456,0.107,-0.092,0.115,-0.085,0.112,-0.1,-0.013,-0.456,-0.456,-0.456,-0.456
-0.456,0.107,-0.092,0.115,-0.085,0.112,-0.097,-0.012,-0.456,-0.456,-0.456,-0.456
-0.456,0.108,-0.092,0.115,-0.085,0.112,-0.1,-0.012,-0.456,-0.456,-0.456,-0.456
-0.456,0.107,-0.092,0.115,-0.085,0.112,-0.1,-0.012,-0.456,-0.456,-0.456,-0.456
-0.457,0.107,-0.092,0.115,-0.085,0.112,-0.1,-0.013,-0.457,-0.457,-0.457,-0.457
-0.456,0.107,-0.092,0.115,-0.085,0.112,-0.1,-0.013,-0.456,-0.456,-0.456,-0.456
-0.456,0.107,-0.092,0.112,-0.085,0.112,-0.1,-0.013,-0.456,-0.456,-0.456,-0.456
-0.457,0.107,-0.092,0.115,-0.085,0.112,-0.1,-0.013,-0.457,-0.457,-0.457,-0.457
-0.456,0.107,-0.092,0.112,-0.085,0.112,-0.1,-0.012,-0.456,-0.456,-0.456,-0.456
-0.453,0.107,-0.092,0.115,-0.085,0.112,-0.1,-0.012,-0.453,-0.453,-0.453,-0.453
-0.453,0.107,-0.092,0.115,-0.085,0.112,-0.1,-0.012,-0.453,-0.453,-0.453,-0.453
-0.452,0.108,-0.092,0.115,-0.085,0.112,-0.097,-0.012,-0.452,-0.452,-0.452,-0.452
-0.452,0.107,-0.092,0.115,-0.085,0.112,-0.1,-0.012,-0.452,-0.452,-0.452,-0.452
-0.449,0.107,-0.092,0.112,-0.085,0.112,-0.1,-0.013,-0.449,-0.449,-0.449,-0.449
-0.449,0.107,-0.092,0.112,-0.085,0.112,-0.1,-0.013,-0.449,-0.449,-0.449,-0.449
-0.449,0.107,-0.092,0.112,-0.085,0.112,-0.1,-0.013,-0.449,-0.449,-0.449,-0.449
-0.448,0.107,-0.092,0.112,-0.085,0.112,-0.1,-0.013,-0.448,-0.448,-0.448,-0.448
-0.445,0.107,-0.092,0.115,-0.085,0.112,-0.097,-0.012,-0.445,-0.445,-0.445,-0.445
-0.445,0.108,-0.092,0.115,-0.085,0.112,-0.1,-0.012,-0.445,-0.445,-0.445,-0.445
-0.441,0.108,-0.092,0.115,-0.085,0.112,-0.097,-0.012,-0.441,-0.441,-0.441,-0.441
-0.44,0.108,-0.092,0.115,-0.085,0.112,-0.097,-0.012,-0.44,-0.44,-0.44,-0.44
-0.44,0.107,-0.092,0.115,-0.085,0.112,-0.1,-0.012,-0.44,-0.44,-0.44,-0.44
-0.436,0.107,-0.092,0.112,-0.085,0.112,-0.1,-0.013,-0.436,-0.436,-0.436,-0.436
-0.433,0.107,-0.092,0.112,-0.085,0.112,-0.1,-0.013,-0.433,-0.433,-0.433,-0.433
-0.433,0.107,-0.092,0.112,-0.085,0.112,-0.1,-0.012,-0.433,-0.433,-0.433,-0.433
-0.429,0.107,-0.092,0.115,-0.085,0.112,-0.1,-0.013,-0.429,-0.429,-0.429,-0.429
-0.425,0.107,-0.092,0.115,-0.085,0.112,-0.097,-0.012,-0.425,-0.425,-0.425,-0.425
-0.425,0.107,-0.092,0.115,-0.085,0.112,-0.097,-0.012,-0.425,-0.425,-0.425,-0.425
-0.421,0.107,-0.092,0.115,-0.085,0.112,-0.097,-0.012,-0.421,-0.421,-0.421,-0.421
-0.42,0.107,-0.092,0.115,-0.085,0.112,-0.1,-0.012,-0.42,-0.42,-0.42,-0.42
-0.417,0.107,-0.092,0.112,-0.085,0.112,-0.1,-0.013,-0.417,-0.417,-0.417,-0.417
-0.412,0.107,-0.092,0.112,-0.085,0.112,-0.1,-0.013,-0.412,-0.412,-0.412,-0.412
-0.409,0.107,-0.092,0.112,-0.085,0.112,-0.1,-0.013,-0.409,-0.409,-0.409,-0.409
-0.408,0.107,-0.092,0.115,-0.085,0.112,-0.1,-0.012,-0.408,-0.408,-0.408,-0.408
-0.401,0.108,-0.092,0.115,-0.085,0.112,-0.097,-0.012,-0.401,-0.401,-0.401,-0.401
-0.4,0.108,-0.092,0.115,-0.085,0.112,-0.097,-0.012,-0.4,-0.4,-0.4,-0.4
-0.396,0.108,-0.092,0.115,-0.085,0.112,-0.097,-0.012,-0.396,-0.396,-0.396,-0.396
-0.393,0.108,-0.092,0.115,-0.085,0.112,-0.1,-0.012,-0.393,-0.393,-0.393,-0.393
-0.389,0.108,-0.092,0.112,-0.085,0.112,-0.1,-0.013,-0.389,-0.389,-0.389,-0.389
-0.384,0.108,-0.092,0.112,-0.085,0.112,-0.1,-0.013,-0.384,-0.384,-0.384,-0.384
-0.381,0.108,-0.092,0.115,-0.085,0.112,-0.1,-0.012,-0.381,-0.381,-0.381,-0.381
-0.38,0.108,-0.092,0.112,-0.085,0.112,-0.1,-0.013,-0.38,-0.38,-0.38,-0.38
-0.372,0.108,-0.092,0.115,-0.085,0.112,-0.1,-0.012,-0.372,-0.372,-0.372,-0.372
-0.368,0.111,-0.092,0.115,-0.085,0.112,-0.1,-0.012,-0.368,-0.368,-0.368,-0.368
-0.365,0.111,-0.092,0.115,-0.085,0.112,-0.097,-0.012,-0.365,-0.365,-0.365,-0.365
-0.36,0.111,-0.092,0.115,-0.085,0.112,-0.097,-0.012,-0.36,-0.36,-0.36,-0.36
-0.357,0.111,-0.092,0.115,-0.085,0.112,-0.1,-0.012,-0.357,-0.357,-0.357,-0.357
-0.352,0.111,-0.092,0.112,-0.085,0.112,-0.1,-0.013,-0.352,-0.352,-0.352,-0.352
-0.348,0.111,-0.092,0.112,-0.085,0.112,-0.1,-0.013,-0.348,-0.348,-0.348,-0.348
-0.341,0.111,-0.092,0.112,-0.085,0.112,-0.1,-0.013,-0.341,-0.341,-0.341,-0.341
-0.337,0.111,-0.092,0.115,-0.085,0.112,-0.1,-0.012,-0.337,-0.337,-0.337,-0.337
-0.329,0.111,-0.092,0.115,-0.085,0.112,-0.1,-0.012,-0.329,-0.329,-0.329,-0.329
-0.325,0.112,-0.092,0.115,-0.085,0.112,-0.097,-0.012,-0.325,-0.325,-0.325,-0.325
-0.321,0.111,-0.092,0.115,-0.085,0.112,-0.1,-0.012,-0.321,-0.321,-0.321,-0.321
-0.316,0.111,-0.092,0.115,-0.085,0.112,-0.1,-0.012,-0.316,-0.316,-0.316,-0.316
-0.312,0.111,-0.092,0.112,-0.085,0.112,-0.1,-0.013,-0.312,-0.312,-0.312,-0.312
-0.304,0.111,-0.092,0.112,-0.085,0.112,-0.1,-0.013,-0.304,-0.304,-0.304,-0.304
-0.301,0.111,-0.092,0.112,-0.085,0.112,-0.1,-0.013,-0.301,-0.301,-0.301,-0.301
-0.297,0.111,-0.092,0.115,-0.085,0.112,-0.1,-0.012,-0.297,-0.297,-0.297,-0.297
-0.289,0.111,-0.092,0.115,-0.085,0.112,-0.1,-0.012,-0.289,-0.289,-0.289,-0.289
-0.284,0.112,-0.092,0.115,-0.085,0.112,-0.097,-0.012,-0.284,-0.284,-0.284,-0.284
-0.277,0.112,-0.089,0.115,-0.085,0.112,-0.097,-0.012,-0.277,-0.277,-0.277,-0.277
-0.273,0.112,-0.092,0.115,-0.085,0.112,-0.1,-0.012,-0.273,-0.273,-0.273,-0.273
-0.268,0.112,-0.092,0.112,-0.085,0.112,-0.1,-0.013,-0.268,-0.268,-0.268,-0.268
-0.26,0.112,-0.092,0.112,-0.085,0.112,-0.1,-0.013,-0.26,-0.26,-0.26,-0.26
-0.256,0.112,-0.092,0.112,-0.085,0.112,-0.1,-0.013,-0.256,-0.256,-0.256,-0.256
-0.249,0.112,-0.092,0.115,-0.085,0.112,-0.1,-0.013,-0.249,-0.249,-0.249,-0.249
-0.241,0.112,-0.092,0.115,-0.085,0.112,-0.097,-0.012,-0.241,-0.241,-0.241,-0.241
-0.237,0.115,-0.092,0.115,-0.085,0.112,-0.097,-0.012,-0.237,-0.237,-0.237,-0.237
-0.229,0.115,-0.092,0.115,-0.085,0.112,-0.097,-0.012,-0.229,-0.229,-0.229,-0.229
-0.225,0.115,-0.092,0.115,-0.085,0.112,-0.1,-0.012,-0.225,-0.225,-0.225,-0.225
-0.22,0.115,-0.092,0.115,-0.085,0.112,-0.1,-0.013,-0.22,-0.22,-0.22,-0.22
-0.212,0.115,-0.092,0.112,-0.085,0.112,-0.1,-0.013,-0.212,-0.212,-0.212,-0.212
-0.208,0.115,-0.092,0.112,-0.085,0.112,-0.1,-0.013,-0.208,-0.208,-0.208,-0.208
-0.197,0.115,-0.092,0.112,-0.085,0.112,-0.1,-0.013,-0.197,-0.197,-0.197,-0.197
-0.193,0.115,-0.092,0.115,-0.085,0.112,-0.1,-0.013,-0.193,-0.193,-0.193,-0.193
-0.185,0.116,-0.092,0.115,-0.085,0.112,-0.097,-0.012,-0.185,-0.185,-0.185,-0.185
-0.18,0.116,-0.092,0.115,-0.085,0.112,-0.097,-0.012,-0.18,-0.18,-0.18,-0.18
-0.173,0.115,-0.092,0.115,-0.085,0.112,-0.097,-0.012,-0.173,-0.173,-0.173,-0.173
-0.168,0.115,-0.092,0.115,-0.085,0.112,-0.1,-0.012,-0.168,-0.168,-0.168,-0.168
-0.16,0.115,-0.092,0.112,-0.085,0.112,-0.1,-0.013,-0.16,-0.16,-0.16,-0.16
-0.149,0.115,-0.092,0.112,-0.085,0.112,-0.1,-0.013,-0.149,-0.149,-0.149,-0.149
-0.145,0.115,-0.092,0.112,-0.085,0.112,-0.1,-0.013,-0.145,-0.145,-0.145,-0.145
-0.137,0.116,-0.092,0.115,-0.085,0.112,-0.1,-0.012,-0.137,-0.137,-0.137,-0.137
-0.132,0.116,-0.092,0.115,-0.085,0.112,-0.097,-0.012,-0.132,-0.132,-0.132,-0.132
-0.125,0.116,-0.092,0.115,-0.085,0.112,-0.097,-0.012,-0.125,-0.125,-0.125,-0.125
-0.116,0.116,-0.092,0.115,-0.085,0.112,-0.097,-0.012,-0.116,-0.116,-0.116,-0.116
-0.109,0.119,-0.092,0.115,-0.085,0.112,-0.097,-0.012,-0.109,-0.109,-0.109,-0.109
-0.101,0.116,-0.092,0.112,-0.085,0.112,-0.1,-0.013,-0.101,-0.101,-0.101,-0.101
-0.096,0.119,-0.092,0.112,-0.085,0.112,-0.1,-0.013,-0.096,-0.096,-0.096,-0.096
-0.088,0.119,-0.092,0.112,-0.085,0.112,-0.1,-0.013,-0.088,-0.088,-0.088,-0.088
-0.08,0.119,-0.092,0.115,-0.085,0.112,-0.1,-0.013,-0.08,-0.08,-0.08,-0.08
-0.073,0.119,-0.092,0.115,-0.085,0.112,-0.097,-0.012,-0.073,-0.073,-0.073,-0.073
-0.065,0.119,-0.092,0.115,-0.085,0.112,-0.097,-0.012,-0.065,-0.065,-0.065,-0.065
-0.06,0.119,-0.089,0.115,-0.085,0.112,-0.097,-0.012,-0.06,-0.06,-0.06,-0.06
-0.052,0.119,-0.092,0.115,-0.085,0.112,-0.097,-0.012,-0.052,-0.052,-0.052,-0.052
-0.044,0.119,-0.092,0.115,-0.085,0.112,-0.1,-0.012,-0.044,-0.044,-0.044,-0.044
-0.037,0.119,-0.092,0.112,-0.085,0.112,-0.1,-0.013,-0.037,-0.037,-0.037,-0.037
-0.032,0.119,-0.092,0.112,-0.085,0.112,-0.1,-0.013,-0.032,-0.032,-0.032,-0.032
-0.021,0.119,-0.092,0.115,-0.085,0.112,-0.1,-0.013,-0.021,-0.021,-0.021,-0.021
-0.016,0.12,-0.092,0.115,-0.085,0.112,-0.1,-0.012,-0.016,-0.016,-0.016,-0.016
-0.008,0.12,-0.092,0.115,-0.085,0.112,-0.097,-0.012,-0.008,-0.008,-0.008,-0.008
-0.001,0.12,-0.092,0.115,-0.085,0.112,-0.097,-0.012,-0.001,-0.001,-0.001,-0.001
0.007,0.12,-0.092,0.115,-0.085,0.112,-0.097,-0.012,0.007,0.007,0.007,0.007
0.012,0.12,-0.092,0.115,-0.085,0.112,-0.1,-0.012,0.012,0.012,0.012,0.012
0.02,0.12,-0.092,0.112,-0.085,0.112,-0.1,-0.013,0.02,0.02,0.02,0.02
0.028,0.12,-0.092,0.112,-0.085,0.112,-0.1,-0.013,0.028,0.028,0.028,0.028
0.035,0.12,-0.092,0.115,-0.085,0.112,-0.1,-0.013,0.035,0.035,0.035,0.035
0.044,0.123,-0.092,0.115,-0.085,0.112,-0.1,-0.012,0.044,0.044,0.044,0.044
0.055,0.123,-0.092,0.115,-0.085,0.112,-0.1,-0.012,0.055,0.055,0.055,0.055
0.06,0.123,-0.089,0.115,-0.085,0.112,-0.097,-0.012,0.06,0.06,0.06,0.06
0.068,0.123,-0.089,0.115,-0.085,0.112,-0.097,-0.012,0.068,0.068,0.068,0.068
0.075,0.123,-0.092,0.115,-0.085,0.112,-0.1,-0.012,0.075,0.075,0.075,0.075
0.083,0.12,-0.092,0.115,-0.085,0.112,-0.1,-0.013,0.083,0.083,0.083,0.083
0.088,0.12,-0.092,0.115,-0.085,0.112,-0.1,-0.013,0.088,0.088,0.088,0.088
0.096,0.123,-0.092,0.112,-0.085,0.112,-0.1,-0.013,0.096,0.096,0.096,0.096
0.104,0.123,-0.092,0.115,-0.085,0.112,-0.1,-0.013,0.104,0.104,0.104,0.104
0.112,0.123,-0.092,0.115,-0.085,0.112,-0.1,-0.012,0.112,0.112,0.112,0.112
0.119,0.124,-0.092,0.115,-0.085,0.112,-0.097,-0.012,0.119,0.119,0.119,0.119
0.127,0.124,-0.089,0.115,-0.085,0.112,-0.097,-0.012,0.127,0.127,0.127,0.127
0.135,0.124,-0.092,0.115,-0.085,0.112,-0.1,-0.012,0.135,0.135,0.135,0.135
0.143,0.124,-0.092,0.115,-0.085,0.112,-0.1,-0.012,0.143,0.143,0.143,0.143
0.148,0.124,-0.092,0.112,-0.085,0.112,-0.1,-0.013,0.148,0.148,0.148,0.148
0.156,0.124,-0.092,0.112,-0.085,0.112,-0.1,-0.013,0.156,0.156,0.156,0.156
0.163,0.124,-0.092,0.115,-0.085,0.112,-0.1,-0.013,0.163,0.163,0.163,0.163
0.168,0.124,-0.092,0.115,-0.085,0.112,-0.1,-0.012,0.168,0.168,0.168,0.168
0.179,0.127,-0.092,0.115,-0.085,0.112,-0.1,-0.012,0.179,0.179,0.179,0.179
0.183,0.127,-0.092,0.115,-0.085,0.112,-0.097,-0.012,0.183,0.183,0.183,0.183
0.195,0.127,-0.092,0.115,-0.085,0.112,-0.097,-0.012,0.195,0.195,0.195,0.195
0.199,0.127,-0.092,0.115,-0.085,0.112,-0.1,-0.012,0.199,0.199,0.199,0.199
0.207,0.127,-0.092,0.112,-0.085,0.112,-0.1,-0.013,0.207,0.207,0.207,0.207
0.211,0.124,-0.092,0.112,-0.085,0.112,-0.1,-0.013,0.211,0.211,0.211,0.211
0.216,0.124,-0.092,0.112,-0.085,0.112,-0.1,-0.013,0.216,0.216,0.216,0.216
0.227,0.124,-0.092,0.115,-0.085,0.112,-0.1,-0.012,0.227,0.227,0.227,0.227
0.235,0.124,-0.092,0.115,-0.085,0.112,-0.1,-0.012,0.235,0.235,0.235,0.235
0.24,0.127,-0.092,0.115,-0.085,0.112,-0.097,-0.012,0.24,0.24,0.24,0.24
0.247,0.127,-0.089,0.115,-0.085,0.112,-0.097,-0.012,0.247,0.247,0.247,0.247
0.252,0.127,-0.092,0.115,-0.085,0.112,-0.1,-0.012,0.252,0.252,0.252,0.252
0.26,0.127,-0.092,0.115,-0.085,0.112,-0.1,-0.013,0.26,0.26,0.26,0.26
0.267,0.127,-0.092,0.112,-0.085,0.112,-0.1,-0.013,0.267,0.267,0.267,0.267
0.275,0.127,-0.092,0.115,-0.085,0.112,-0.1,-0.013,0.275,0.275,0.275,0.275
0.28,0.128,-0.092,0.115,-0.085,0.112,-0.1,-0.013,0.28,0.28,0.28,0.28
0.287,0.128,-0.092,0.115,-0.085,0.112,-0.1,-0.012,0.287,0.287,0.287,0.287
0.292,0.128,-0.092,0.115,-0.085,0.112,-0.097,-0.012,0.292,0.292,0.292,0.292
0.299,0.128,-0.089,0.115,-0.085,0.112,-0.097,-0.012,0.299,0.299,0.299,0.299
0.304,0.128,-0.092,0.115,-0.085,0.112,-0.1,-0.012,0.304,0.304,0.304,0.304
0.311,0.128,-0.092,0.115,-0.085,0.112,-0.1,-0.012,0.311,0.311,0.311,0.311
0.319,0.128,-0.092,0.115,-0.085,0.112,-0.1,-0.013,0.319,0.319,0.319,0.319
0.324,0.128,-0.092,0.115,-0.085,0.112,-0.1,-0.013,0.324,0.324,0.324,0.324
0.331,0.128,-0.092,0.115,-0.085,0.112,-0.1,-0.013,0.331,0.331,0.331,0.331
0.335,0.128,-0.092,0.115,-0.085,0.112,-0.1,-0.012,0.335,0.335,0.335,0.335
0.343,0.128,-0.092,0.115,-0.085,0.112,-0.1,-0.012,0.343,0.343,0.343,0.343
0.348,0.128,-0.092,0.115,-0.085,0.112,-0.097,-0.012,0.348,0.348,0.348,0.348
0.352,0.128,-0.089,0.115,-0.085,0.112,-0.097,-0.012,0.352,0.352,0.352,0.352
0.359,0.128,-0.092,0.115,-0.085,0.112,-0.1,-0.012,0.359,0.359,0.359,0.359
0.364,0.128,-0.092,0.115,-0.085,0.112,-0.1,-0.013,0.364,0.364,0.364,0.364
0.371,0.128,-0.092,0.115,-0.085,0.112,-0.1,-0.013,0.371,0.371,0.371,0.371
0.375,0.128,-0.092,0.115,-0.085,0.112,-0.1,-0.013,0.375,0.375,0.375,0.375
0.383,0.128,-0.092,0.115,-0.085,0.112,-0.1,-0.012,0.383,0.383,0.383,0.383
0.384,0.131,-0.092,0.115,-0.085,0.112,-0.1,-0.012,0.384,0.384,0.384,0.384
0.392,0.131,-0.089,0.115,-0.085,0.112,-0.097,-0.012,0.392,0.392,0.392,0.392
0.396,0.131,-0.089,0.115,-0.085,0.112,-0.097,-0.012,0.396,0.396,0.396,0.396
0.403,0.131,-0.092,0.115,-0.085,0.112,-0.1,-0.012,0.403,0.403,0.403,0.403
0.407,0.131,-0.092,0.112,-0.085,0.112,-0.1,-0.013,0.407,0.407,0.407,0.407
0.412,0.131,-0.092,0.115,-0.085,0.112,-0.1,-0.013,0.412,0.412,0.412,0.412
0.419,0.131,-0.092,0.115,-0.085,0.112,-0.1,-0.013,0.419,0.419,0.419,0.419
0.423,0.131,-0.092,0.115,-0.085,0.112,-0.1,-0.013,0.423,0.423,0.423,0.423
0.428,0.131,-0.092,0.115,-0.085,0.112,-0.1,-0.012,0.428,0.428,0.428,0.428
0.431,0.132,-0.092,0.115,-0.085,0.112,-0.1,-0.012,0.431,0.431,0.431,0.431
0.436,0.132,-0.089,0.115,-0.085,0.112,-0.097,-0.012,0.436,0.436,0.436,0.436
0.44,0.132,-0.092,0.115,-0.085,0.112,-0.097,-0.012,0.44,0.44,0.44,0.44
0.444,0.132,-0.092,0.115,-0.085,0.112,-0.1,-0.012,0.444,0.444,0.444,0.444
0.448,0.131,-0.092,0.112,-0.085,0.112,-0.1,-0.013,0.448,0.448,0.448,0.448
0.455,0.131,-0.092,0.115,-0.085,0.112,-0.1,-0.013,0.455,0.455,0.455,0.455
0.459,0.132,-0.092,0.115,-0.085,0.112,-0.1,-0.012,0.459,0.459,0.459,0.459
0.46,0.132,-0.092,0.115,-0.085,0.112,-0.1,-0.012,0.46,0.46,0.46,0.46
0.467,0.131,-0.092,0.115,-0.085,0.112,-0.097,-0.012,0.467,0.467,0.467,0.467
0.471,0.131,-0.089,0.115,-0.085,0.112,-0.097,-0.012,0.471,0.471,0.471,0.471
0.475,0.131,-0.092,0.115,-0.085,0.112,-0.1,-0.012,0.475,0.475,0.475,0.475
0.476,0.131,-0.092,0.115,-0.085,0.112,-0.1,-0.012,0.476,0.476,0.476,0.476
0.48,0.131,-0.092,0.115,-0.085,0.112,-0.1,-0.013,0.48,0.48,0.48,0.48
0.484,0.131,-0.092,0.115,-0.085,0.112,-0.1,-0.013,0.484,0.484,0.484,0.484
0.487,0.131,-0.092,0.115,-0.085,0.112,-0.1,-0.012,0.487,0.487,0.487,0.487
0.488,0.131,-0.092,0.115,-0.085,0.112,-0.1,-0.013,0.488,0.488,0.488,0.488
0.495,0.131,-0.092,0.115,-0.085,0.112,-0.1,-0.012,0.495,0.495,0.495,0.495
0.495,0.132,-0.089,0.115,-0.085,0.112,-0.097,-0.012,0.495,0.495,0.495,0.495
0.499,0.132,-0.092,0.115,-0.085,0.112,-0.097,-0.012,0.499,0.499,0.499,0.499
0.503,0.132,-0.092,0.115,-0.085,0.112,-0.1,-0.012,0.503,0.503,0.503,0.503
0.504,0.132,-0.092,0.115,-0.085,0.112,-0.1,-0.013,0.504,0.504,0.504,0.504
0.507,0.132,-0.092,0.115,-0.085,0.112,-0.1,-0.013,0.507,0.507,0.507,0.507
0.507,0.132,-0.092,0.115,-0.085,0.112,-0.1,-0.013,0.507,0.507,0.507,0.507
0.512,0.132,-0.092,0.115,-0.085,0.112,-0.1,-0.013,0.512,0.512,0.512,0.512
0.515,0.132,-0.092,0.115,-0.085,0.112,-0.097,-0.012,0.515,0.515,0.515,0.515
0.516,0.132,-0.092,0.115,-0.085,0.112,-0.097,-0.012,0.516,0.516,0.516,0.516
0.519,0.132,-0.092,0.115,-0.085,0.112,-0.097,-0.012,0.519,0.519,0.519,0.519
0.519,0.132,-0.092,0.115,-0.085,0.112,-0.097,-0.012,0.519,0.519,0.519,0.519
0.52,0.132,-0.092,0.115,-0.085,0.112,-0.1,-0.012,0.52,0.52,0.52,0.52
0.524,0.132,-0.092,0.115,-0.085,0.112,-0.1,-0.013,0.524,0.524,0.524,0.524
0.527,0.132,-0.092,0.115,-0.085,0.112,-0.1,-0.013,0.527,0.527,0.527,0.527
0.524,0.132,-0.092,0.115,-0.085,0.112,-0.1,-0.012,0.524,0.524,0.524,0.524
0.527,0.132,-0.092,0.115,-0.085,0.112,-0.1,-0.012,0.527,0.527,0.527,0.527
0.528,0.135,-0.092,0.115,-0.085,0.112,-0.097,-0.012,0.528,0.528,0.528,0.528
0.531,0.135,-0.089,0.115,-0.085,0.112,-0.097,-0.012,0.531,0.531,0.531,0.531
0.531,0.135,-0.092,0.115,-0.085,0.112,-0.097,-0.012,0.531,0.531,0.531,0.531
0.532,0.132,-0.092,0.115,-0.085,0.112,-0.1,-0.012,0.532,0.532,0.532,0.532
0.531,0.132,-0.092,0.115,-0.085,0.112,-0.1,-0.013,0.531,0.531,0.531,0.531
0.532,0.132,-0.092,0.115,-0.085,0.112,-0.1,-0.013,0.532,0.532,0.532,0.532
0.535,0.132,-0.092,0.115,-0.085,0.112,-0.1,-0.012,0.535,0.535,0.535,0.535
0.535,0.135,-0.092,0.115,-0.085,0.112,-0.1,-0.012,0.535,0.535,0.535,0.535
0.532,0.135,-0.092,0.115,-0.085,0.112,-0.097,-0.012,0.532,0.532,0.532,0.532
0.535,0.135,-0.092,0.115,-0.085,0.112,-0.097,-0.012,0.535,0.535,0.535,0.535
0.535,0.135,-0.089,0.115,-0.085,0.112,-0.097,-0.012,0.535,0.535,0.535,0.535
0.535,0.135,-0.092,0.115,-0.085,0.112,-0.1,-0.012,0.535,0.535,0.535,0.535
0.532,0.132,-0.092,0.115,-0.085,0.112,-0.1,-0.013,0.532,0.532,0.532,0.532
0.535,0.132,-0.092,0.115,-0.085,0.112,-0.1,-0.013,0.535,0.535,0.535,0.535
0.535,0.132,-0.092,0.115,-0.085,0.112,-0.1,-0.013,0.535,0.535,0.535,0.535
0.535,0.132,-0.092,0.115,-0.085,0.112,-0.1,-0.012,0.535,0.535,0.535,0.535
0.535,0.135,-0.092,0.115,-0.085,0.112,-0.1,-0.012,0.535,0.535,0.535,0.535
0.532,0.135,-0.092,0.115,-0.085,0.112,-0.097,-0.012,0.532,0.532,0.532,0.532
0.531,0.135,-0.092,0.115,-0.085,0.112,-0.097,-0.012,0.531,0.531,0.531,0.531
0.528,0.135,-0.092,0.115,-0.085,0.112,-0.1,-0.012,0.528,0.528,0.528,0.528
0.531,0.132,-0.092,0.115,-0.085,0.112,-0.1,-0.012,0.531,0.531,0.531,0.531
0.528,0.132,-0.092,0.115,-0.085,0.112,-0.1,-0.013,0.528,0.528,0.528,0.528
0.527,0.132,-0.092,0.115,-0.085,0.112,-0.1,-0.013,0.527,0.527,0.527,0.527
0.527,0.132,-0.092,0.115,-0.085,0.112,-0.1,-0.012,0.527,0.527,0.527,0.527
0.523,0.132,-0.092,0.115,-0.085,0.112,-0.1,-0.012,0.523,0.523,0.523,0.523
0.523,0.132,-0.089,0.115,-0.085,0.112,-0.097,-0.012,0.523,0.523,0.523,0.523
0.52,0.132,-0.092,0.115,-0.085,0.112,-0.097,-0.012,0.52,0.52,0.52,0.52
0.52,0.132,-0.092,0.115,-0.085,0.112,-0.097,-0.012,0.52,0.52,0.52,0.52
0.516,0.132,-0.092,0.115,-0.085,0.112,-0.1,-0.012,0.516,0.516,0.516,0.516
0.512,0.132,-0.092,0.115,-0.085,0.112,-0.1,-0.013,0.512,0.512,0.512,0.512
0.512,0.132,-0.092,0.115,-0.085,0.112,-0.1,-0.013,0.512,0.512,0.512,0.512
0.512,0.132,-0.092,0.115,-0.085,0.112,-0.1,-0.013,0.512,0.512,0.512,0.512
0.508,0.132,-0.092,0.115,-0.085,0.112,-0.1,-0.012,0.508,0.508,0.508,0.508
0.507,0.132,-0.092,0.115,-0.085,0.112,-0.1,-0.012,0.507,0.507,0.507,0.507
0.504,0.132,-0.092,0.115,-0.085,0.112,-0.097,-0.012,0.504,0.504,0.504,0.504
0.5,0.132,-0.089,0.115,-0.085,0.112,-0.097,-0.012,0.5,0.5,0.5,0.5
0.499,0.132,-0.092,0.115,-0.085,0.112,-0.1,-0.012,0.499,0.499,0.499,0.499
0.496,0.132,-0.092,0.115,-0.085,0.112,-0.1,-0.013,0.496,0.496,0.496,0.496
0.491,0.131,-0.092,0.115,-0.085,0.112,-0.1,-0.013,0.491,0.491,0.491,0.491
0.488,0.131,-0.092,0.115,-0.085,0.112,-0.1,-0.013,0.488,0.488,0.488,0.488
0.484,0.131,-0.092,0.115,-0.085,0.112,-0.1,-0.012,0.484,0.484,0.484,0.484
0.484,0.131,-0.092,0.115,-0.085,0.112,-0.097,-0.012,0.484,0.484,0.484,0.484
0.479,0.131,-0.092,0.115,-0.085,0.112,-0.097,-0.012,0.479,0.479,0.479,0.479
0.475,0.131,-0.089,0.115,-0.085,0.112,-0.097,-0.012,0.475,0.475,0.475,0.475
0.472,0.131,-0.092,0.115,-0.085,0.112,-0.097,-0.012,0.472,0.472,0.472,0.472
0.468,0.131,-0.092,0.115,-0.085,0.112,-0.1,-0.013,0.468,0.468,0.468,0.468
0.464,0.131,-0.092,0.115,-0.085,0.112,-0.1,-0.013,0.464,0.464,0.464,0.464
0.46,0.132,-0.092,0.115,-0.085,0.112,-0.1,-0.013,0.46,0.46,0.46,0.46
0.456,0.132,-0.092,0.115,-0.085,0.112,-0.1,-0.013,0.456,0.456,0.456,0.456
0.452,0.132,-0.092,0.115,-0.085,0.112,-0.1,-0.012,0.452,0.452,0.452,0.452
0.448,0.132,-0.092,0.115,-0.085,0.112,-0.1,-0.012,0.448,0.448,0.448,0.448
0.444,0.132,-0.089,0.115,-0.085,0.112,-0.097,-0.012,0.444,0.444,0.444,0.444
0.44,0.132,-0.092,0.115,-0.085,0.112,-0.097,-0.012,0.44,0.44,0.44,0.44
0.436,0.132,-0.092,0.115,-0.085,0.112,-0.1,-0.012,0.436,0.436,0.436,0.436
0.432,0.131,-0.092,0.115,-0.085,0.112,-0.1,-0.013,0.432,0.432,0.432,0.432
0.427,0.131,-0.092,0.115,-0.085,0.112,-0.1,-0.013,0.427,0.427,0.427,0.427
0.423,0.131,-0.092,0.115,-0.085,0.112,-0.1,-0.012,0.423,0.423,0.423,0.423
0.419,0.131,-0.092,0.115,-0.085,0.112,-0.1,-0.012,0.419,0.419,0.419,0.419
0.411,0.131,-0.092,0.115,-0.085,0.112,-0.097,-0.012,0.411,0.411,0.411,0.411
0.407,0.131,-0.089,0.115,-0.085,0.112,-0.1,-0.012,0.407,0.407,0.407,0.407
0.403,0.131,-0.089,0.115,-0.085,0.112,-0.097,-0.012,0.403,0.403,0.403,0.403
0.396,0.131,-0.092,0.115,-0.085,0.112,-0.097,-0.012,0.396,0.396,0.396,0.396
0.391,0.131,-0.092,0.115,-0.085,0.112,-0.1,-0.013,0.391,0.391,0.391,0.391
0.387,0.128,-0.092,0.115,-0.085,0.112,-0.1,-0.013,0.387,0.387,0.387,0.387
0.38,0.128,-0.092,0.115,-0.085,0.112,-0.1,-0.013,0.38,0.38,0.38,0.38
0.376,0.131,-0.092,0.115,-0.085,0.112,-0.1,-0.013,0.376,0.376,0.376,0.376
0.371,0.131,-0.092,0.115,-0.085,0.112,-0.097,-0.012,0.371,0.371,0.371,0.371
0.364,0.128,-0.092,0.115,-0.085,0.112,-0.097,-0.012,0.364,0.364,0.364,0.364
0.36,0.128,-0.092,0.115,-0.085,0.112,-0.097,-0.012,0.36,0.36,0.36,0.36
0.355,0.128,-0.092,0.115,-0.085,0.112,-0.1,-0.012,0.355,0.355,0.355,0.355
0.344,0.128,-0.092,0.115,-0.085,0.112,-0.1,-0.012,0.344,0.344,0.344,0.344
0.34,0.128,-0.092,0.115,-0.085,0.112,-0.1,-0.013,0.34,0.34,0.34,0.34
0.335,0.128,-0.092,0.115,-0.085,0.112,-0.1,-0.013,0.335,0.335,0.335,0.335
0.328,0.128,-0.092,0.115,-0.085,0.112,-0.1,-0.013,0.328,0.328,0.328,0.328
0.323,0.128,-0.092,0.115,-0.085,0.112,-0.1,-0.012,0.323,0.323,0.323,0.323
0.316,0.128,-0.092,0.115,-0.085,0.112,-0.1,-0.012,0.316,0.316,0.316,0.316
0.311,0.128,-0.089,0.115,-0.085,0.112,-0.097,-0.012,0.311,0.311,0.311,0.311
0.303,0.128,-0.092,0.115,-0.085,0.112,-0.1,-0.012,0.303,0.303,0.303,0.303
0.296,0.128,-0.092,0.115,-0.085,0.112,-0.1,-0.012,0.296,0.296,0.296,0.296
0.291,0.128,-0.092,0.115,-0.085,0.112,-0.1,-0.013,0.291,0.291,0.291,0.291
0.284,0.128,-0.092,0.115,-0.085,0.112,-0.1,-0.013,0.284,0.284,0.284,0.284
0.276,0.128,-0.092,0.115,-0.085,0.112,-0.1,-0.013,0.276,0.276,0.276,0.276
0.272,0.128,-0.092,0.115,-0.085,0.112,-0.1,-0.012,0.272,0.272,0.272,0.272
0.264,0.127,-0.092,0.115,-0.085,0.112,-0.1,-0.012,0.264,0.264,0.264,0.264
0.259,0.127,-0.092,0.115,-0.085,0.112,-0.097,-0.012,0.259,0.259,0.259,0.259
0.251,0.127,-0.092,0.115,-0.085,0.112,-0.1,-0.012,0.251,0.251,0.251,0.251
0.244,0.127,-0.092,0.115,-0.085,0.112,-0.097,-0.012,0.244,0.244,0.244,0.244
0.239,0.124,-0.092,0.115,-0.085,0.112,-0.1,-0.013,0.239,0.239,0.239,0.239
0.231,0.124,-0.092,0.115,-0.085,0.112,-0.1,-0.013,0.231,0.231,0.231,0.231
0.227,0.124,-0.092,0.115,-0.085,0.112,-0.1,-0.012,0.227,0.227,0.227,0.227
0.219,0.124,-0.092,0.115,-0.085,0.112,-0.1,-0.013,0.219,0.219,0.219,0.219
0.211,0.124,-0.092,0.115,-0.085,0.112,-0.1,-0.012,0.211,0.211,0.211,0.211
0.203,0.127,-0.092,0.115,-0.085,0.112,-0.097,-0.012,0.203,0.203,0.203,0.203
0.195,0.127,-0.092,0.115,-0.085,0.112,-0.097,-0.012,0.195,0.195,0.195,0.195
0.191,0.127,-0.092,0.115,-0.085,0.112,-0.097,-0.012,0.191,0.191,0.191,0.191
0.18,0.124,-0.092,0.115,-0.085,0.112,-0.1,-0.013,0.18,0.18,0.18,0.18
0.175,0.124,-0.092,0.115,-0.085,0.112,-0.1,-0.013,0.175,0.175,0.175,0.175
0.168,0.124,-0.092,0.115,-0.085,0.112,-0.1,-0.013,0.168,0.168,0.168,0.168
0.16,0.124,-0.092,0.115,-0.085,0.112,-0.1,-0.013,0.16,0.16,0.16,0.16
0.155,0.124,-0.092,0.115,-0.085,0.112,-0.1,-0.012,0.155,0.155,0.155,0.155
0.147,0.124,-0.092,0.115,-0.085,0.112,-0.097,-0.012,0.147,0.147,0.147,0.147
0.139,0.124,-0.089,0.115,-0.085,0.112,-0.097,-0.012,0.139,0.139,0.139,0.139
0.131,0.124,-0.092,0.115,-0.085,0.112,-0.1,-0.012,0.131,0.131,0.131,0.131
0.124,0.124,-0.092,0.115,-0.085,0.112,-0.1,-0.012,0.124,0.124,0.124,0.124
0.116,0.123,-0.092,0.115,-0.085,0.112,-0.1,-0.013,0.116,0.116,0.116,0.116
0.111,0.123,-0.092,0.115,-0.085,0.112,-0.1,-0.013,0.111,0.111,0.111,0.111
0.1,0.123,-0.092,0.115,-0.085,0.112,-0.1,-0.013,0.1,0.1,0.1,0.1
0.095,0.123,-0.092,0.115,-0.085,0.112,-0.1,-0.012,0.095,0.095,0.095,0.095
0.087,0.123,-0.092,0.115,-0.085,0.112,-0.1,-0.012,0.087,0.087,0.087,0.087
0.079,0.123,-0.092,0.115,-0.085,0.112,-0.097,-0.012,0.079,0.079,0.079,0.079
0.072,0.123,-0.092,0.115,-0.085,0.112,-0.1,-0.012,0.072,0.072,0.072,0.072
0.067,0.123,-0.092,0.115,-0.085,0.112,-0.1,-0.012,0.067,0.067,0.067,0.067
0.056,0.123,-0.092,0.115,-0.085,0.112,-0.1,-0.013,0.056,0.056,0.056,0.056
0.047,0.123,-0.092,0.115,-0.085,0.112,-0.1,-0.013,0.047,0.047,0.047,0.047
0.04,0.123,-0.092,0.115,-0.085,0.112,-0.1,-0.013,0.04,0.04,0.04,0.04
0.032,0.123,-0.092,0.115,-0.085,0.112,-0.1,-0.012,0.032,0.032,0.032,0.032
0.024,0.123,-0.092,0.115,-0.085,0.112,-0.097,-0.012,0.024,0.024,0.024,0.024
0.019,0.123,-0.092,0.115,-0.085,0.112,-0.097,-0.012,0.019,0.019,0.019,0.019
0.011,0.12,-0.092,0.115,-0.085,0.112,-0.097,-0.012,0.011,0.011,0.011,0.011
0.003,0.12,-0.092,0.115,-0.085,0.112,-0.1,-0.012,0.003,0.003,0.003,0.003
-0.005,0.12,-0.092,0.115,-0.085,0.112,-0.1,-0.013,-0.005,-0.005,-0.005,-0.005
-0.012,0.12,-0.092,0.115,-0.085,0.112,-0.1,-0.013,-0.012,-0.012,-0.012,-0.012
-0.017,0.119,-0.092,0.115,-0.085,0.112,-0.1,-0.013,-0.017,-0.017,-0.017,-0.017
-0.028,0.119,-0.092,0.115,-0.085,0.112,-0.1,-0.012,-0.028,-0.028,-0.028,-0.028
-0.033,0.119,-0.092,0.115,-0.085,0.112,-0.1,-0.012,-0.033,-0.033,-0.033,-0.033
-0.041,0.119,-0.092,0.115,-0.085,0.112,-0.097,-0.012,-0.041,-0.041,-0.041,-0.041
-0.049,0.119,-0.092,0.115,-0.085,0.112,-0.097,-0.012,-0.049,-0.049,-0.049,-0.049
-0.056,0.12,-0.092,0.115,-0.085,0.112,-0.1,-0.012,-0.056,-0.056,-0.056,-0.056
-0.064,0.119,-0.092,0.115,-0.085,0.112,-0.1,-0.012,-0.064,-0.064,-0.064,-0.064
-0.072,0.119,-0.092,0.115,-0.085,0.112,-0.1,-0.013,-0.072,-0.072,-0.072,-0.072
-0.08,0.119,-0.092,0.115,-0.085,0.112,-0.1,-0.013,-0.08,-0.08,-0.08,-0.08
-0.088,0.119,-0.092,0.115,-0.085,0.112,-0.1,-0.013,-0.088,-0.088,-0.088,-0.088
-0.092,0.119,-0.092,0.115,-0.085,0.112,-0.1,-0.012,-0.092,-0.092,-0.092,-0.092
-0.097,0.119,-0.092,0.115,-0.085,0.112,-0.1,-0.012,-0.097,-0.097,-0.097,-0.097
-0.108,0.119,-0.092,0.115,-0.085,0.112,-0.097,-0.012,-0.108,-0.108,-0.108,-0.108
-0.112,0.119,-0.092,0.115,-0.085,0.112,-0.1,-0.012,-0.112,-0.112,-0.112,-0.112
-0.121,0.116,-0.092,0.115,-0.085,0.112,-0.1,-0.012,-0.121,-0.121,-0.121,-0.121
-0.128,0.116,-0.092,0.115,-0.085,0.112,-0.1,-0.013,-0.128,-0.128,-0.128,-0.128
-0.133,0.116,-0.092,0.115,-0.085,0.112,-0.1,-0.013,-0.133,-0.133,-0.133,-0.133
-0.144,0.116,-0.092,0.115,-0.085,0.112,-0.1,-0.013,-0.144,-0.144,-0.144,-0.144
-0.149,0.116,-0.092,0.115,-0.085,0.112,-0.1,-0.013,-0.149,-0.149,-0.149,-0.149
-0.156,0.116,-0.092,0.115,-0.085,0.112,-0.097,-0.012,-0.156,-0.156,-0.156,-0.156
-0.164,0.116,-0.092,0.115,-0.085,0.112,-0.097,-0.012,-0.164,-0.164,-0.164,-0.164
-0.168,0.115,-0.092,0.115,-0.085,0.112,-0.097,-0.012,-0.168,-0.168,-0.168,-0.168
-0.177,0.116,-0.092,0.115,-0.085,0.112,-0.1,-0.012,-0.177,-0.177,-0.177,-0.177
-0.184,0.115,-0.092,0.115,-0.085,0.112,-0.1,-0.013,-0.184,-0.184,-0.184,-0.184
-0.189,0.115,-0.092,0.115,-0.085,0.112,-0.1,-0.013,-0.189,-0.189,-0.189,-0.189
-0.197,0.115,-0.092,0.115,-0.085,0.112,-0.1,-0.013,-0.197,-0.197,-0.197,-0.197
-0.204,0.115,-0.092,0.115,-0.085,0.112,-0.1,-0.012,-0.204,-0.204,-0.204,-0.204
-0.209,0.116,-0.092,0.115,-0.085,0.112,-0.097,-0.012,-0.209,-0.209,-0.209,-0.209
-0.217,0.115,-0.092,0.115,-0.085,0.112,-0.097,-0.012,-0.217,-0.217,-0.217,-0.217
-0.22,0.115,-0.089,0.115,-0.085,0.112,-0.1,-0.012,-0.22,-0.22,-0.22,-0.22
-0.229,0.115,-0.092,0.115,-0.085,0.112,-0.1,-0.012,-0.229,-0.229,-0.229,-0.229
-0.236,0.115,-0.092,0.115,-0.085,0.112,-0.1,-0.013,-0.236,-0.236,-0.236,-0.236
-0.241,0.112,-0.092,0.115,-0.085,0.112,-0.1,-0.013,-0.241,-0.241,-0.241,-0.241
-0.248,0.112,-0.092,0.115,-0.085,0.112,-0.1,-0.013,-0.248,-0.248,-0.248,-0.248
-0.253,0.112,-0.092,0.115,-0.085,0.112,-0.1,-0.012,-0.253,-0.253,-0.253,-0.253
-0.257,0.112,-0.092,0.115,-0.085,0.112,-0.1,-0.012,-0.257,-0.257,-0.257,-0.257
-0.265,0.112,-0.092,0.115,-0.085,0.112,-0.097,-0.012,-0.265,-0.265,-0.265,-0.265
-0.269,0.112,-0.092,0.115,-0.085,0.112,-0.097,-0.012,-0.269,-0.269,-0.269,-0.269
-0.277,0.112,-0.089,0.115,-0.085,0.112,-0.1,-0.012,-0.277,-0.277,-0.277,-0.277
-0.284,0.112,-0.092,0.115,-0.085,0.112,-0.1,-0.012,-0.284,-0.284,-0.284,-0.284
-0.289,0.111,-0.092,0.115,-0.085,0.112,-0.1,-0.013,-0.289,-0.289,-0.289,-0.289
-0.293,0.111,-0.092,0.115,-0.085,0.112,-0.1,-0.013,-0.293,-0.293,-0.293,-0.293
-0.3,0.111,-0.092,0.115,-0.085,0.112,-0.1,-0.013,-0.3,-0.3,-0.3,-0.3
-0.304,0.111,-0.092,0.115,-0.085,0.112,-0.1,-0.012,-0.304,-0.304,-0.304,-0.304
-0.308,0.112,-0.092,0.115,-0.085,0.112,-0.1,-0.012,-0.308,-0.308,-0.308,-0.308
-0.316,0.112,-0.092,0.115,-0.085,0.112,-0.097,-0.012,-0.316,-0.316,-0.316,-0.316
-0.321,0.112,-0.089,0.115,-0.085,0.112,-0.097,-0.012,-0.321,-0.321,-0.321,-0.321
-0.325,0.112,-0.092,0.115,-0.085,0.112,-0.1,-0.012,-0.325,-0.325,-0.325,-0.325
-0.329,0.111,-0.092,0.115,-0.085,0.112,-0.1,-0.013,-0.329,-0.329,-0.329,-0.329
-0.333,0.111,-0.092,0.115,-0.085,0.112,-0.1,-0.013,-0.333,-0.333,-0.333,-0.333
-0.34,0.111,-0.092,0.115,-0.085,0.112,-0.1,-0.013,-0.34,-0.34,-0.34,-0.34
-0.344,0.111,-0.092,0.115,-0.085,0.112,-0.1,-0.013,-0.344,-0.344,-0.344,-0.344
-0.349,0.111,-0.092,0.115,-0.085,0.112,-0.1,-0.012,-0.349,-0.349,-0.349,-0.349
-0.356,0.111,-0.092,0.115,-0.085,0.112,-0.1,-0.012,-0.356,-0.356,-0.356,-0.356
-0.357,0.111,-0.092,0.115,-0.085,0.112,-0.097,-0.012,-0.357,-0.357,-0.357,-0.357
-0.361,0.111,-0.092,0.115,-0.085,0.112,-0.1,-0.012,-0.361,-0.361,-0.361,-0.361
-0.368,0.111,-0.092,0.115,-0.085,0.112,-0.1,-0.013,-0.368,-0.368,-0.368,-0.368
-0.373,0.108,-0.092,0.115,-0.085,0.112,-0.1,-0.013,-0.373,-0.373,-0.373,-0.373
-0.376,0.108,-0.092,0.115,-0.085,0.112,-0.1,-0.013,-0.376,-0.376,-0.376,-0.376
-0.38,0.108,-0.092,0.115,-0.085,0.112,-0.1,-0.013,-0.38,-0.38,-0.38,-0.38
-0.385,0.108,-0.092,0.115,-0.085,0.112,-0.1,-0.013,-0.385,-0.385,-0.385,-0.385
-0.389,0.108,-0.092,0.115,-0.085,0.112,-0.1,-0.012,-0.389,-0.389,-0.389,-0.389
-0.389,0.111,-0.092,0.115,-0.085,0.112,-0.1,-0.012,-0.389,-0.389,-0.389,-0.389
-0.393,0.108,-0.092,0.115,-0.085,0.112,-0.1,-0.012,-0.393,-0.393,-0.393,-0.393
-0.397,0.108,-0.092,0.115,-0.085,0.112,-0.1,-0.012,-0.397,-0.397,-0.397,-0.397
-0.404,0.108,-0.092,0.115,-0.085,0.112,-0.1,-0.013,-0.404,-0.404,-0.404,-0.404
-0.405,0.107,-0.092,0.115,-0.085,0.112,-0.1,-0.013,-0.405,-0.405,-0.405,-0.405
-0.408,0.108,-0.092,0.115,-0.085,0.112,-0.1,-0.013,-0.408,-0.408,-0.408,-0.408
-0.412,0.108,-0.092,0.115,-0.085,0.112,-0.1,-0.013,-0.412,-0.412,-0.412,-0.412
-0.416,0.108,-0.092,0.115,-0.085,0.112,-0.1,-0.012,-0.416,-0.416,-0.416,-0.416
-0.417,0.108,-0.092,0.115,-0.085,0.112,-0.1,-0.012,-0.417,-0.417,-0.417,-0.417
-0.421,0.108,-0.092,0.115,-0.085,0.112,-0.1,-0.012,-0.421,-0.421,-0.421,-0.421
-0.421,0.107,-0.092,0.115,-0.085,0.112,-0.1,-0.012,-0.421,-0.421,-0.421,-0.421
-0.425,0.107,-0.092,0.115,-0.085,0.112,-0.1,-0.013,-0.425,-0.425,-0.425,-0.425
-0.428,0.107,-0.092,0.115,-0.085,0.112,-0.1,-0.013,-0.428,-0.428,-0.428,-0.428
-0.432,0.107,-0.092,0.115,-0.085,0.112,-0.1,-0.013,-0.432,-0.432,-0.432,-0.432
-0.433,0.108,-0.092,0.115,-0.085,0.112,-0.1,-0.013,-0.433,-0.433,-0.433,-0.433
-0.433,0.108,-0.092,0.115,-0.085,0.112,-0.1,-0.012,-0.433,-0.433,-0.433,-0.433
-0.437,0.108,-0.092,0.115,-0.085,0.112,-0.1,-0.012,-0.437,-0.437,-0.437,-0.437
-0.44,0.108,-0.089,0.115,-0.085,0.112,-0.097,-0.012,-0.44,-0.44,-0.44,-0.44
-0.441,0.108,-0.092,0.115,-0.085,0.112,-0.1,-0.012,-0.441,-0.441,-0.441,-0.441
-0.445,0.107,-0.092,0.115,-0.085,0.112,-0.1,-0.013,-0.445,-0.445,-0.445,-0.445
-0.445,0.107,-0.092,0.115,-0.085,0.112,-0.1,-0.013,-0.445,-0.445,-0.445,-0.445
-0.445,0.107,-0.092,0.115,-0.085,0.112,-0.1,-0.013,-0.445,-0.445,-0.445,-0.445
-0.449,0.108,-0.092,0.115,-0.085,0.112,-0.1,-0.013,-0.449,-0.449,-0.449,-0.449
-0.449,0.108,-0.092,0.115,-0.085,0.112,-0.1,-0.012,-0.449,-0.449,-0.449,-0.449
-0.449,0.108,-0.092,0.115,-0.085,0.112,-0.1,-0.012,-0.449,-0.449,-0.449,-0.449
-0.452,0.108,-0.092,0.115,-0.085,0.112,-0.097,-0.012,-0.452,-0.452,-0.452,-0.452
-0.452,0.108,-0.092,0.115,-0.085,0.112,-0.1,-0.012,-0.452,-0.452,-0.452,-0.452
-0.453,0.107,-0.092,0.115,-0.085,0.112,-0.1,-0.012,-0.453,-0.453,-0.453,-0.453
-0.453,0.107,-0.092,0.115,-0.085,0.112,-0.1,-0.013,-0.453,-0.453,-0.453,-0.453
-0.456,0.107,-0.092,0.115,-0.085,0.112,-0.1,-0.013,-0.456,-0.456,-0.456,-0.456
-0.456,0.107,-0.092,0.115,-0.085,0.112,-0.1,-0.013,-0.456,-0.456,-0.456,-0.456
-0.456,0.107,-0.092,0.115,-0.085,0.112,-0.1,-0.012,-0.456,-0.456,-0.456,-0.456
-0.456,0.108,-0.092,0.115,-0.085,0.112,-0.1,-0.012,-0.456,-0.456,-0.456,-0.456
-0.456,0.108,-0.092,0.115,-0.085,0.112,-0.097,-0.012,-0.456,-0.456,-0.456,-0.456
-0.456,0.108,-0.092,0.115,-0.085,0.112,-0.1,-0.012,-0.456,-0.456,-0.456,-0.456
-0.457,0.108,-0.092,0.115,-0.085,0.112,-0.1,-0.012,-0.457,-0.457,-0.457,-0.457
-0.453,0.107,-0.092,0.115,-0.085,0.112,-0.1,-0.013,-0.453,-0.453,-0.453,-0.453
-0.456,0.107,-0.092,0.115,-0.085,0.112,-0.1,-0.013,-0.456,-0.456,-0.456,-0.456
-0.456,0.107,-0.092,0.115,-0.085,0.112,-0.1,-0.013,-0.456,-0.456,-0.456,-0.456
-0.453,0.107,-0.092,0.115,-0.085,0.112,-0.1,-0.012,-0.453,-0.453,-0.453,-0.453
-0.453,0.108,-0.092,0.115,-0.085,0.112,-0.1,-0.012,-0.453,-0.453,-0.453,-0.453
-0.452,0.108,-0.092,0.115,-0.085,0.112,-0.1,-0.012,-0.452,-0.452,-0.452,-0.452
-0.453,0.108,-0.092,0.115,-0.085,0.112,-0.097,-0.012,-0.453,-0.453,-0.453,-0.453
-0.453,0.108,-0.092,0.115,-0.085,0.112,-0.1,-0.012,-0.453,-0.453,-0.453,-0.453
-0.449,0.107,-0.092,0.115,-0.085,0.112,-0.1,-0.013,-0.449,-0.449,-0.449,-0.449
-0.449,0.107,-0.092,0.115,-0.085,0.112,-0.1,-0.013,-0.449,-0.449,-0.449,-0.449
-0.445,0.107,-0.092,0.115,-0.085,0.112,-0.1,-0.013,-0.445,-0.445,-0.445,-0.445
-0.445,0.108,-0.092,0.115,-0.085,0.112,-0.1,-0.012,-0.445,-0.445,-0.445,-0.445
-0.445,0.108,-0.092,0.115,-0.085,0.112,-0.1,-0.012,-0.445,-0.445,-0.445,-0.445
-0.444,0.108,-0.092,0.115,-0.085,0.112,-0.1,-0.012,-0.444,-0.444,-0.444,-0.444
-0.44,0.108,-0.092,0.115,-0.085,0.112,-0.1,-0.012,-0.44,-0.44,-0.44,-0.44
-0.441,0.108,-0.092,0.115,-0.085,0.112,-0.1,-0.012,-0.441,-0.441,-0.441,-0.441
-0.437,0.108,-0.092,0.115,-0.085,0.112,-0.1,-0.013,-0.437,-0.437,-0.437,-0.437
-0.437,0.108,-0.092,0.115,-0.085,0.112,-0.1,-0.013,-0.437,-0.437,-0.437,-0.437
-0.433,0.108,-0.092,0.115,-0.085,0.112,-0.1,-0.013,-0.433,-0.433,-0.433,-0.433
-0.429,0.107,-0.092,0.115,-0.085,0.112,-0.1,-0.013,-0.429,-0.429,-0.429,-0.429
-0.429,0.107,-0.092,0.115,-0.085,0.112,-0.1,-0.012,-0.429,-0.429,-0.429,-0.429
-0.428,0.108,-0.092,0.115,-0.085,0.112,-0.1,-0.012,-0.428,-0.428,-0.428,-0.428
-0.425,0.108,-0.092,0.115,-0.085,0.112,-0.1,-0.012,-0.425,-0.425,-0.425,-0.425
-0.424,0.108,-0.092,0.115,-0.085,0.112,-0.1,-0.012,-0.424,-0.424,-0.424,-0.424
-0.42,0.107,-0.092,0.115,-0.085,0.112,-0.1,-0.012,-0.42,-0.42,-0.42,-0.42
-0.416,0.107,-0.092,0.115,-0.085,0.112,-0.1,-0.013,-0.416,-0.416,-0.416,-0.416
-0.412,0.107,-0.092,0.115,-0.085,0.112,-0.1,-0.013,-0.412,-0.412,-0.412,-0.412
-0.409,0.108,-0.092,0.115,-0.085,0.112,-0.1,-0.013,-0.409,-0.409,-0.409,-0.409
-0.405,0.108,-0.092,0.115,-0.085,0.112,-0.1,-0.012,-0.405,-0.405,-0.405,-0.405
-0.404,0.108,-0.092,0.115,-0.085,0.112,-0.1,-0.013,-0.404,-0.404,-0.404,-0.404
-0.4,0.108,-0.092,0.115,-0.085,0.112,-0.1,-0.012,-0.4,-0.4,-0.4,-0.4
-0.397,0.111,-0.092,0.115,-0.085,0.112,-0.1,-0.012,-0.397,-0.397,-0.397,-0.397
-0.393,0.108,-0.092,0.115,-0.085,0.112,-0.1,-0.012,-0.393,-0.393,-0.393,-0.393
-0.389,0.108,-0.092,0.115,-0.085,0.112,-0.1,-0.013,-0.389,-0.389,-0.389,-0.389
-0.385,0.108,-0.092,0.115,-0.085,0.112,-0.1,-0.013,-0.385,-0.385,-0.385,-0.385
-0.381,0.108,-0.092,0.115,-0.085,0.112,-0.1,-0.013,-0.381,-0.381,-0.381,-0.381
-0.377,0.111,-0.092,0.115,-0.085,0.112,-0.1,-0.013,-0.377,-0.377,-0.377,-0.377
-0.373,0.111,-0.092,0.115,-0.085,0.112,-0.1,-0.012,-0.373,-0.373,-0.373,-0.373
-0.368,0.111,-0.092,0.115,-0.085,0.112,-0.1,-0.012,-0.368,-0.368,-0.368,-0.368
-0.365,0.111,-0.092,0.115,-0.085,0.112,-0.097,-0.012,-0.365,-0.365,-0.365,-0.365
-0.36,0.111,-0.092,0.115,-0.085,0.112,-0.1,-0.012,-0.36,-0.36,-0.36,-0.36
-0.357,0.111,-0.092,0.115,-0.085,0.112,-0.1,-0.012,-0.357,-0.357,-0.357,-0.357
-0.352,0.111,-0.092,0.115,-0.085,0.112,-0.1,-0.013,-0.352,-0.352,-0.352,-0.352
-0.348,0.111,-0.092,0.115,-0.085,0.112,-0.1,-0.013,-0.348,-0.348,-0.348,-0.348
-0.344,0.111,-0.092,0.115,-0.085,0.112,-0.1,-0.013,-0.344,-0.344,-0.344,-0.344
-0.337,0.111,-0.092,0.115,-0.085,0.112,-0.1,-0.012,-0.337,-0.337,-0.337,-0.337
-0.333,0.112,-0.092,0.115,-0.085,0.112,-0.1,-0.012,-0.333,-0.333,-0.333,-0.333
-0.329,0.112,-0.089,0.115,-0.085,0.112,-0.1,-0.012,-0.329,-0.329,-0.329,-0.329
-0.321,0.112,-0.089,0.115,-0.085,0.112,-0.1,-0.012,-0.321,-0.321,-0.321,-0.321
-0.316,0.112,-0.092,0.115,-0.085,0.112,-0.1,-0.012,-0.316,-0.316,-0.316,-0.316
-0.312,0.112,-0.092,0.115,-0.085,0.112,-0.1,-0.013,-0.312,-0.312,-0.312,-0.312
-0.308,0.112,-0.092,0.115,-0.085,0.112,-0.1,-0.013,-0.308,-0.308,-0.308,-0.308
-0.301,0.111,-0.092,0.115,-0.085,0.112,-0.1,-0.013,-0.301,-0.301,-0.301,-0.301
-0.296,0.111,-0.092,0.115,-0.085,0.112,-0.1,-0.012,-0.296,-0.296,-0.296,-0.296
-0.292,0.112,-0.092,0.115,-0.085,0.112,-0.1,-0.012,-0.292,-0.292,-0.292,-0.292
-0.285,0.112,-0.092,0.115,-0.085,0.112,-0.1,-0.012,-0.285,-0.285,-0.285,-0.285
-0.28,0.112,-0.089,0.115,-0.085,0.112,-0.097,-0.012,-0.28,-0.28,-0.28,-0.28
-0.273,0.112,-0.092,0.115,-0.085,0.112,-0.1,-0.012,-0.273,-0.273,-0.273,-0.273
-0.265,0.112,-0.092,0.115,-0.085,0.112,-0.1,-0.013,-0.265,-0.265,-0.265,-0.265
-0.261,0.112,-0.092,0.115,-0.085,0.112,-0.1,-0.013,-0.261,-0.261,-0.261,-0.261
-0.257,0.112,-0.092,0.115,-0.085,0.112,-0.1,-0.013,-0.257,-0.257,-0.257,-0.257
-0.249,0.112,-0.092,0.115,-0.085,0.112,-0.1,-0.012,-0.249,-0.249,-0.249,-0.249
-0.244,0.115,-0.092,0.115,-0.085,0.112,-0.1,-0.012,-0.244,-0.244,-0.244,-0.244
-0.237,0.115,-0.092,0.115,-0.085,0.112,-0.1,-0.012,-0.237,-0.237,-0.237,-0.237
-0.232,0.115,-0.092,0.115,-0.085,0.112,-0.1,-0.012,-0.232,-0.232,-0.232,-0.232
-0.224,0.115,-0.092,0.115,-0.085,0.112,-0.1,-0.012,-0.224,-0.224,-0.224,-0.224
-0.217,0.115,-0.092,0.115,-0.085,0.112,-0.1,-0.012,-0.217,-0.217,-0.217,-0.217
-0.212,0.115,-0.092,0.115,-0.085,0.112,-0.1,-0.013,-0.212,-0.212,-0.212,-0.212
-0.205,0.115,-0.092,0.115,-0.085,0.112,-0.1,-0.013,-0.205,-0.205,-0.205,-0.205
-0.197,0.115,-0.092,0.115,-0.085,0.112,-0.1,-0.013,-0.197,-0.197,-0.197,-0.197
-0.192,0.116,-0.092,0.115,-0.085,0.112,-0.1,-0.013,-0.192,-0.192,-0.192,-0.192
-0.188,0.116,-0.092,0.115,-0.085,0.112,-0.1,-0.012,-0.188,-0.188,-0.188,-0.188
-0.177,0.116,-0.092,0.115,-0.085,0.112,-0.097,-0.012,-0.177,-0.177,-0.177,-0.177
-0.172,0.116,-0.092,0.115,-0.085,0.112,-0.1,-0.012,-0.172,-0.172,-0.172,-0.172
-0.165,0.115,-0.092,0.115,-0.085,0.112,-0.1,-0.012,-0.165,-0.165,-0.165,-0.165
-0.16,0.115,-0.092,0.115,-0.085,0.112,-0.1,-0.013,-0.16,-0.16,-0.16,-0.16
-0.152,0.115,-0.092,0.115,-0.085,0.112,-0.1,-0.013,-0.152,-0.152,-0.152,-0.152
-0.145,0.116,-0.092,0.115,-0.085,0.112,-0.1,-0.013,-0.145,-0.145,-0.145,-0.145
-0.14,0.116,-0.092,0.115,-0.085,0.112,-0.1,-0.012,-0.14,-0.14,-0.14,-0.14
-0.129,0.116,-0.092,0.115,-0.085,0.112,-0.1,-0.012,-0.129,-0.129,-0.129,-0.129
-0.124,0.119,-0.089,0.115,-0.085,0.112,-0.097,-0.012,-0.124,-0.124,-0.124,-0.124
-0.12,0.119,-0.092,0.115,-0.085,0.112,-0.1,-0.012,-0.12,-0.12,-0.12,-0.12
-0.109,0.119,-0.092,0.115,-0.085,0.112,-0.1,-0.012,-0.109,-0.109,-0.109,-0.109
-0.101,0.119,-0.092,0.115,-0.085,0.112,-0.1,-0.013,-0.101,-0.101,-0.101,-0.101
-0.096,0.119,-0.092,0.115,-0.085,0.112,-0.1,-0.013,-0.096,-0.096,-0.096,-0.096
-0.089,0.119,-0.092,0.115,-0.085,0.112,-0.1,-0.013,-0.089,-0.089,-0.089,-0.089
-0.081,0.119,-0.092,0.115,-0.085,0.112,-0.1,-0.013,-0.081,-0.081,-0.081,-0.081
-0.073,0.119,-0.092,0.115,-0.085,0.112,-0.1,-0.012,-0.073,-0.073,-0.073,-0.073
-0.065,0.12,-0.092,0.115,-0.085,0.112,-0.1,-0.012,-0.065,-0.065,-0.065,-0.065
-0.057,0.12,-0.089,0.115,-0.085,0.112,-0.097,-0.012,-0.057,-0.057,-0.057,-0.057
-0.053,0.12,-0.092,0.115,-0.085,0.112,-0.1,-0.012,-0.053,-0.053,-0.053,-0.053
-0.044,0.119,-0.092,0.115,-0.085,0.112,-0.1,-0.012,-0.044,-0.044,-0.044,-0.044
-0.037,0.119,-0.092,0.112,-0.085,0.112,-0.1,-0.013,-0.037,-0.037,-0.037,-0.037
